Tiempo (s)	 Campo (A/m)	 Magnetizacion (A/m)
0.000000e+00	-5.190955e+04	-5.458651e+02
1.000000e-08	-5.189453e+04	-5.455994e+02
2.000000e-08	-5.186645e+04	-5.451077e+02
3.000000e-08	-5.182493e+04	-5.447590e+02
4.000000e-08	-5.177023e+04	-5.448196e+02
5.000000e-08	-5.170340e+04	-5.450404e+02
6.000000e-08	-5.162496e+04	-5.447580e+02
7.000000e-08	-5.153335e+04	-5.435646e+02
8.000000e-08	-5.142512e+04	-5.419418e+02
9.000000e-08	-5.129743e+04	-5.411244e+02
1.000000e-07	-5.115079e+04	-5.421158e+02
1.100000e-07	-5.098920e+04	-5.446526e+02
1.200000e-07	-5.081717e+04	-5.471498e+02
1.300000e-07	-5.063633e+04	-5.478800e+02
1.400000e-07	-5.044482e+04	-5.464841e+02
1.500000e-07	-5.023967e+04	-5.444402e+02
1.600000e-07	-5.001968e+04	-5.439050e+02
1.700000e-07	-4.978597e+04	-5.457869e+02
1.800000e-07	-4.954029e+04	-5.487386e+02
1.900000e-07	-4.928322e+04	-5.500916e+02
2.000000e-07	-4.901402e+04	-5.480730e+02
2.100000e-07	-4.873167e+04	-5.434122e+02
2.200000e-07	-4.843568e+04	-5.388648e+02
2.300000e-07	-4.812592e+04	-5.369775e+02
2.400000e-07	-4.780222e+04	-5.380076e+02
2.500000e-07	-4.746459e+04	-5.398126e+02
2.600000e-07	-4.711360e+04	-5.397697e+02
2.700000e-07	-4.675012e+04	-5.369829e+02
2.800000e-07	-4.637439e+04	-5.328460e+02
2.900000e-07	-4.598547e+04	-5.295983e+02
3.000000e-07	-4.558205e+04	-5.283216e+02
3.100000e-07	-4.516383e+04	-5.281969e+02
3.200000e-07	-4.473226e+04	-5.275190e+02
3.300000e-07	-4.428963e+04	-5.253318e+02
3.400000e-07	-4.383742e+04	-5.221318e+02
3.500000e-07	-4.337521e+04	-5.191571e+02
3.600000e-07	-4.290126e+04	-5.171336e+02
3.700000e-07	-4.241406e+04	-5.157067e+02
3.800000e-07	-4.191355e+04	-5.139491e+02
3.900000e-07	-4.140121e+04	-5.112891e+02
4.000000e-07	-4.087896e+04	-5.079492e+02
4.100000e-07	-4.034761e+04	-5.046065e+02
4.200000e-07	-3.980621e+04	-5.017356e+02
4.300000e-07	-3.925265e+04	-4.992659e+02
4.400000e-07	-3.868526e+04	-4.967632e+02
4.500000e-07	-3.810409e+04	-4.938551e+02
4.600000e-07	-3.751084e+04	-4.904946e+02
4.700000e-07	-3.690757e+04	-4.868979e+02
4.800000e-07	-3.629546e+04	-4.832922e+02
4.900000e-07	-3.567459e+04	-4.797185e+02
5.000000e-07	-3.504489e+04	-4.760396e+02
5.100000e-07	-3.440681e+04	-4.721128e+02
5.200000e-07	-3.376095e+04	-4.679530e+02
5.300000e-07	-3.310736e+04	-4.637258e+02
5.400000e-07	-3.244523e+04	-4.595737e+02
5.500000e-07	-3.177378e+04	-4.554500e+02
5.600000e-07	-3.109302e+04	-4.511436e+02
5.700000e-07	-3.040376e+04	-4.464826e+02
5.800000e-07	-2.970674e+04	-4.414986e+02
5.900000e-07	-2.900197e+04	-4.363628e+02
6.000000e-07	-2.828911e+04	-4.311660e+02
6.100000e-07	-2.756818e+04	-4.258068e+02
6.200000e-07	-2.683972e+04	-4.201364e+02
6.300000e-07	-2.610426e+04	-4.141878e+02
6.400000e-07	-2.536181e+04	-4.081909e+02
6.500000e-07	-2.461226e+04	-4.023145e+02
6.600000e-07	-2.385604e+04	-3.964231e+02
6.700000e-07	-2.309416e+04	-3.901596e+02
6.800000e-07	-2.232727e+04	-3.832996e+02
6.900000e-07	-2.155484e+04	-3.759930e+02
7.000000e-07	-2.077553e+04	-3.686116e+02
7.100000e-07	-1.998865e+04	-3.613654e+02
7.200000e-07	-1.919504e+04	-3.541077e+02
7.300000e-07	-1.839649e+04	-3.465285e+02
7.400000e-07	-1.759418e+04	-3.384891e+02
7.500000e-07	-1.678778e+04	-3.301197e+02
7.600000e-07	-1.597631e+04	-3.216065e+02
7.700000e-07	-1.515961e+04	-3.129597e+02
7.800000e-07	-1.433897e+04	-3.040349e+02
7.900000e-07	-1.351607e+04	-2.947395e+02
8.000000e-07	-1.269139e+04	-2.851394e+02
8.100000e-07	-1.186365e+04	-2.753423e+02
8.200000e-07	-1.103094e+04	-2.653379e+02
8.300000e-07	-1.019227e+04	-2.550206e+02
8.400000e-07	-9.348330e+03	-2.443569e+02
8.500000e-07	-8.500784e+03	-2.334544e+02
8.600000e-07	-7.651173e+03	-2.224188e+02
8.700000e-07	-6.800347e+03	-2.111761e+02
8.800000e-07	-5.948662e+03	-1.995100e+02
8.900000e-07	-5.096307e+03	-1.872971e+02
9.000000e-07	-4.243259e+03	-1.746648e+02
9.100000e-07	-3.389140e+03	-1.618715e+02
9.200000e-07	-2.533484e+03	-1.490322e+02
9.300000e-07	-1.676379e+03	-1.359979e+02
9.400000e-07	-8.187641e+02	-1.225131e+02
9.500000e-07	3.818123e+01	-1.084650e+02
9.600000e-07	8.940697e+02	-9.396208e+01
9.700000e-07	1.749650e+03	-7.919429e+01
9.800000e-07	2.605918e+03	-6.425768e+01
9.900000e-07	3.462801e+03	-4.911351e+01
1.000000e-06	4.318812e+03	-3.366987e+01
1.010000e-06	5.172145e+03	-1.786893e+01
1.020000e-06	6.022146e+03	-1.722152e+00
1.030000e-06	6.869664e+03	1.468012e+01
1.040000e-06	7.715902e+03	3.117547e+01
1.050000e-06	8.560900e+03	4.759233e+01
1.060000e-06	9.403124e+03	6.386114e+01
1.070000e-06	1.024049e+04	8.006318e+01
1.080000e-06	1.107189e+04	9.632244e+01
1.090000e-06	1.189794e+04	1.126188e+02
1.100000e-06	1.272057e+04	1.287299e+02
1.110000e-06	1.354176e+04	1.443963e+02
1.120000e-06	1.436226e+04	1.595505e+02
1.130000e-06	1.518099e+04	1.743544e+02
1.140000e-06	1.599562e+04	1.889969e+02
1.150000e-06	1.680417e+04	2.034741e+02
1.160000e-06	1.760649e+04	2.175906e+02
1.170000e-06	1.840446e+04	2.311614e+02
1.180000e-06	1.920022e+04	2.441744e+02
1.190000e-06	1.999396e+04	2.567511e+02
1.200000e-06	2.078338e+04	2.689897e+02
1.210000e-06	2.156537e+04	2.808902e+02
1.220000e-06	2.233850e+04	2.924134e+02
1.230000e-06	2.310376e+04	3.035542e+02
1.240000e-06	2.386296e+04	3.143240e+02
1.250000e-06	2.461675e+04	3.246955e+02
1.260000e-06	2.536417e+04	3.346239e+02
1.270000e-06	2.610406e+04	3.441310e+02
1.280000e-06	2.683624e+04	3.533223e+02
1.290000e-06	2.756114e+04	3.622807e+02
1.300000e-06	2.827862e+04	3.709585e+02
1.310000e-06	2.898784e+04	3.792175e+02
1.320000e-06	2.968838e+04	3.869917e+02
1.330000e-06	3.038120e+04	3.943801e+02
1.340000e-06	3.106772e+04	4.015530e+02
1.350000e-06	3.174800e+04	4.085802e+02
1.360000e-06	3.242024e+04	4.153832e+02
1.370000e-06	3.308243e+04	4.218535e+02
1.380000e-06	3.373433e+04	4.279836e+02
1.390000e-06	3.437741e+04	4.338586e+02
1.400000e-06	3.501267e+04	4.395490e+02
1.410000e-06	3.563916e+04	4.450524e+02
1.420000e-06	3.625477e+04	4.503399e+02
1.430000e-06	3.685862e+04	4.554112e+02
1.440000e-06	3.745198e+04	4.602712e+02
1.450000e-06	3.803664e+04	4.648833e+02
1.460000e-06	3.861271e+04	4.692000e+02
1.470000e-06	3.917832e+04	4.732586e+02
1.480000e-06	3.973169e+04	4.771998e+02
1.490000e-06	4.027295e+04	4.811491e+02
1.500000e-06	4.080371e+04	4.850819e+02
1.510000e-06	4.132505e+04	4.888427e+02
1.520000e-06	4.183626e+04	4.923101e+02
1.530000e-06	4.233573e+04	4.955155e+02
1.540000e-06	4.282281e+04	4.985826e+02
1.550000e-06	4.329842e+04	5.015788e+02
1.560000e-06	4.376405e+04	5.044673e+02
1.570000e-06	4.422023e+04	5.072011e+02
1.580000e-06	4.466613e+04	5.098095e+02
1.590000e-06	4.510009e+04	5.123579e+02
1.600000e-06	4.552040e+04	5.148506e+02
1.610000e-06	4.592572e+04	5.172279e+02
1.620000e-06	4.631548e+04	5.194593e+02
1.630000e-06	4.669027e+04	5.215845e+02
1.640000e-06	4.705176e+04	5.236256e+02
1.650000e-06	4.740162e+04	5.255043e+02
1.660000e-06	4.774037e+04	5.271217e+02
1.670000e-06	4.806704e+04	5.285325e+02
1.680000e-06	4.838023e+04	5.299683e+02
1.690000e-06	4.867937e+04	5.316195e+02
1.700000e-06	4.896509e+04	5.334095e+02
1.710000e-06	4.923832e+04	5.350531e+02
1.720000e-06	4.949945e+04	5.363614e+02
1.730000e-06	4.974813e+04	5.374372e+02
1.740000e-06	4.998380e+04	5.385211e+02
1.750000e-06	5.020606e+04	5.396843e+02
1.760000e-06	5.041467e+04	5.407562e+02
1.770000e-06	5.060954e+04	5.415719e+02
1.780000e-06	5.079084e+04	5.422089e+02
1.790000e-06	5.095904e+04	5.429020e+02
1.800000e-06	5.111438e+04	5.437568e+02
1.810000e-06	5.125627e+04	5.446448e+02
1.820000e-06	5.138344e+04	5.454061e+02
1.830000e-06	5.149496e+04	5.460572e+02
1.840000e-06	5.159119e+04	5.467053e+02
1.850000e-06	5.167355e+04	5.473059e+02
1.860000e-06	5.174322e+04	5.476571e+02
1.870000e-06	5.180007e+04	5.476984e+02
1.880000e-06	5.184292e+04	5.477005e+02
1.890000e-06	5.187086e+04	5.480049e+02
1.900000e-06	5.188432e+04	5.485814e+02
1.910000e-06	5.188480e+04	5.490064e+02
1.920000e-06	5.187367e+04	5.489755e+02
1.930000e-06	5.185100e+04	5.487169e+02
1.940000e-06	5.181545e+04	5.487004e+02
1.950000e-06	5.176541e+04	5.489507e+02
1.960000e-06	5.170047e+04	5.489192e+02
1.970000e-06	5.162214e+04	5.482641e+02
1.980000e-06	5.153292e+04	5.476139e+02
1.990000e-06	5.143393e+04	5.481188e+02
2.000000e-06	5.132293e+04	5.499514e+02
2.010000e-06	5.119466e+04	5.514521e+02
2.020000e-06	5.104420e+04	5.503178e+02
2.030000e-06	5.087097e+04	5.460454e+02
2.040000e-06	5.067995e+04	5.411059e+02
2.050000e-06	5.047870e+04	5.392238e+02
2.060000e-06	5.027232e+04	5.420486e+02
2.070000e-06	5.006044e+04	5.473944e+02
2.080000e-06	4.983862e+04	5.509188e+02
2.090000e-06	4.960230e+04	5.497934e+02
2.100000e-06	4.934993e+04	5.449727e+02
2.110000e-06	4.908292e+04	5.400676e+02
2.120000e-06	4.880348e+04	5.380745e+02
2.130000e-06	4.851272e+04	5.390424e+02
2.140000e-06	4.821036e+04	5.405545e+02
2.150000e-06	4.789540e+04	5.401626e+02
2.160000e-06	4.756674e+04	5.373847e+02
2.170000e-06	4.722344e+04	5.337145e+02
2.180000e-06	4.686513e+04	5.310598e+02
2.190000e-06	4.649250e+04	5.301840e+02
2.200000e-06	4.610729e+04	5.303293e+02
2.210000e-06	4.571122e+04	5.300328e+02
2.220000e-06	4.530464e+04	5.283124e+02
2.230000e-06	4.488630e+04	5.253324e+02
2.240000e-06	4.445445e+04	5.221485e+02
2.250000e-06	4.400852e+04	5.197894e+02
2.260000e-06	4.354956e+04	5.184104e+02
2.270000e-06	4.307924e+04	5.172198e+02
2.280000e-06	4.259819e+04	5.152505e+02
2.290000e-06	4.210546e+04	5.122735e+02
2.300000e-06	4.159947e+04	5.089764e+02
2.310000e-06	4.107979e+04	5.062363e+02
2.320000e-06	4.054796e+04	5.042351e+02
2.330000e-06	4.000658e+04	5.023237e+02
2.340000e-06	3.945742e+04	4.997330e+02
2.350000e-06	3.890006e+04	4.963371e+02
2.360000e-06	3.833232e+04	4.926756e+02
2.370000e-06	3.775231e+04	4.893010e+02
2.380000e-06	3.716011e+04	4.862318e+02
2.390000e-06	3.655750e+04	4.830718e+02
2.400000e-06	3.594622e+04	4.795496e+02
2.410000e-06	3.532627e+04	4.757979e+02
2.420000e-06	3.469631e+04	4.721001e+02
2.430000e-06	3.405547e+04	4.684898e+02
2.440000e-06	3.340470e+04	4.647119e+02
2.450000e-06	3.274608e+04	4.605503e+02
2.460000e-06	3.208087e+04	4.560819e+02
2.470000e-06	3.140836e+04	4.515554e+02
2.480000e-06	3.072676e+04	4.470813e+02
2.490000e-06	3.003502e+04	4.425247e+02
2.500000e-06	2.933372e+04	4.377042e+02
2.510000e-06	2.862441e+04	4.326196e+02
2.520000e-06	2.790828e+04	4.274329e+02
2.530000e-06	2.718579e+04	4.222508e+02
2.540000e-06	2.645699e+04	4.169841e+02
2.550000e-06	2.572188e+04	4.114283e+02
2.560000e-06	2.498013e+04	4.054523e+02
2.570000e-06	2.423099e+04	3.990948e+02
2.580000e-06	2.347390e+04	3.925129e+02
2.590000e-06	2.270938e+04	3.858684e+02
2.600000e-06	2.193895e+04	3.792372e+02
2.610000e-06	2.116382e+04	3.725624e+02
2.620000e-06	2.038367e+04	3.656686e+02
2.630000e-06	1.959685e+04	3.583639e+02
2.640000e-06	1.880203e+04	3.505936e+02
2.650000e-06	1.799957e+04	3.425067e+02
2.660000e-06	1.719128e+04	3.343347e+02
2.670000e-06	1.637896e+04	3.261694e+02
2.680000e-06	1.556326e+04	3.178657e+02
2.690000e-06	1.474390e+04	3.091820e+02
2.700000e-06	1.392046e+04	3.000126e+02
2.710000e-06	1.309297e+04	2.904659e+02
2.720000e-06	1.226170e+04	2.807219e+02
2.730000e-06	1.142692e+04	2.708475e+02
2.740000e-06	1.058895e+04	2.607667e+02
2.750000e-06	9.748427e+03	2.503764e+02
2.760000e-06	8.906156e+03	2.396381e+02
2.770000e-06	8.062682e+03	2.285567e+02
2.780000e-06	7.218105e+03	2.171274e+02
2.790000e-06	6.372333e+03	2.053549e+02
2.800000e-06	5.525372e+03	1.933049e+02
2.810000e-06	4.677204e+03	1.810675e+02
2.820000e-06	3.827504e+03	1.686350e+02
2.830000e-06	2.975836e+03	1.558524e+02
2.840000e-06	2.122372e+03	1.425508e+02
2.850000e-06	1.268339e+03	1.287423e+02
2.860000e-06	4.154283e+02	1.146411e+02
2.870000e-06	-4.354860e+02	1.004525e+02
2.880000e-06	-1.285064e+03	8.614754e+01
2.890000e-06	-2.134825e+03	7.147845e+01
2.900000e-06	-2.985648e+03	5.622760e+01
2.910000e-06	-3.836908e+03	4.042711e+01
2.920000e-06	-4.687017e+03	2.432977e+01
2.930000e-06	-5.534785e+03	8.187776e+00
2.940000e-06	-6.380256e+03	-7.923148e+00
2.950000e-06	-7.224370e+03	-2.408983e+01
2.960000e-06	-8.067949e+03	-4.042520e+01
2.970000e-06	-8.911024e+03	-5.695703e+01
2.980000e-06	-9.752930e+03	-7.360059e+01
2.990000e-06	-1.059279e+04	-9.018320e+01
3.000000e-06	-1.142985e+04	-1.065001e+02
3.010000e-06	-1.226341e+04	-1.224117e+02
3.020000e-06	-1.309296e+04	-1.379391e+02
3.030000e-06	-1.391839e+04	-1.532506e+02
3.040000e-06	-1.474028e+04	-1.684967e+02
3.050000e-06	-1.555951e+04	-1.836253e+02
3.060000e-06	-1.637624e+04	-1.983781e+02
3.070000e-06	-1.718918e+04	-2.125039e+02
3.080000e-06	-1.799606e+04	-2.259827e+02
3.090000e-06	-1.879520e+04	-2.390272e+02
3.100000e-06	-1.958684e+04	-2.518601e+02
3.110000e-06	-2.037278e+04	-2.645048e+02
3.120000e-06	-2.115434e+04	-2.767933e+02
3.130000e-06	-2.193068e+04	-2.885481e+02
3.140000e-06	-2.269934e+04	-2.997311e+02
3.150000e-06	-2.345858e+04	-3.104330e+02
3.160000e-06	-2.420928e+04	-3.207695e+02
3.170000e-06	-2.495419e+04	-3.308109e+02
3.180000e-06	-2.569523e+04	-3.405741e+02
3.190000e-06	-2.643171e+04	-3.500226e+02
3.200000e-06	-2.716124e+04	-3.590661e+02
3.210000e-06	-2.788229e+04	-3.676126e+02
3.220000e-06	-2.859548e+04	-3.756721e+02
3.230000e-06	-2.930215e+04	-3.834000e+02
3.240000e-06	-3.000225e+04	-3.909840e+02
3.250000e-06	-3.069390e+04	-3.984594e+02
3.260000e-06	-3.137544e+04	-4.056608e+02
3.270000e-06	-3.204717e+04	-4.123933e+02
3.280000e-06	-3.271084e+04	-4.186518e+02
3.290000e-06	-3.336739e+04	-4.246397e+02
3.300000e-06	-3.401571e+04	-4.305588e+02
3.310000e-06	-3.465395e+04	-4.364044e+02
3.320000e-06	-3.528154e+04	-4.419950e+02
3.330000e-06	-3.589958e+04	-4.471860e+02
3.340000e-06	-3.650904e+04	-4.520179e+02
3.350000e-06	-3.710912e+04	-4.566490e+02
3.360000e-06	-3.769793e+04	-4.611891e+02
3.370000e-06	-3.827475e+04	-4.656377e+02
3.380000e-06	-3.884107e+04	-4.699634e+02
3.390000e-06	-3.939910e+04	-4.741727e+02
3.400000e-06	-3.994937e+04	-4.782635e+02
3.410000e-06	-4.049013e+04	-4.821511e+02
3.420000e-06	-4.101914e+04	-4.857119e+02
3.430000e-06	-4.153569e+04	-4.889293e+02
3.440000e-06	-4.204064e+04	-4.919600e+02
3.450000e-06	-4.253490e+04	-4.950108e+02
3.460000e-06	-4.301810e+04	-4.981492e+02
3.470000e-06	-4.348928e+04	-5.012602e+02
3.480000e-06	-4.394819e+04	-5.041915e+02
3.490000e-06	-4.439568e+04	-5.069079e+02
3.500000e-06	-4.483256e+04	-5.094821e+02
3.510000e-06	-4.525845e+04	-5.119630e+02
3.520000e-06	-4.567196e+04	-5.143070e+02
3.530000e-06	-4.607204e+04	-5.164531e+02
3.540000e-06	-4.645886e+04	-5.184288e+02
3.550000e-06	-4.683328e+04	-5.203406e+02
3.560000e-06	-4.719565e+04	-5.222670e+02
3.570000e-06	-4.754514e+04	-5.241943e+02
3.580000e-06	-4.788024e+04	-5.260646e+02
3.590000e-06	-4.819996e+04	-5.278481e+02
3.600000e-06	-4.850462e+04	-5.295358e+02
3.610000e-06	-4.879571e+04	-5.310869e+02
3.620000e-06	-4.907495e+04	-5.324432e+02
3.630000e-06	-4.934330e+04	-5.336207e+02
3.640000e-06	-4.960036e+04	-5.347454e+02
3.650000e-06	-4.984472e+04	-5.359450e+02
3.660000e-06	-5.007498e+04	-5.371996e+02
3.670000e-06	-5.029068e+04	-5.383494e+02
3.680000e-06	-5.049248e+04	-5.392810e+02
3.690000e-06	-5.068140e+04	-5.400769e+02
3.700000e-06	-5.085792e+04	-5.409287e+02
3.710000e-06	-5.102172e+04	-5.418954e+02
3.720000e-06	-5.117212e+04	-5.427961e+02
3.730000e-06	-5.130866e+04	-5.433888e+02
3.740000e-06	-5.143129e+04	-5.436430e+02
3.750000e-06	-5.154020e+04	-5.437887e+02
3.760000e-06	-5.163554e+04	-5.440797e+02
3.770000e-06	-5.171736e+04	-5.445424e+02
3.780000e-06	-5.178544e+04	-5.449954e+02
3.790000e-06	-5.183922e+04	-5.452908e+02
3.800000e-06	-5.187813e+04	-5.454729e+02
3.810000e-06	-5.190216e+04	-5.456630e+02
3.820000e-06	-5.191218e+04	-5.458393e+02
