Tiempo_(s)	Campo_(A/m)	Magnetizacion_(A/m)
0.0000000000	-51816.083731	-755.137199
0.0000000100	-51792.449015	-755.622661
0.0000000200	-51741.165671	-756.028869
0.0000000300	-51672.330524	-756.180626
0.0000000400	-51593.993758	-755.931161
0.0000000500	-51509.241592	-755.215693
0.0000000600	-51408.450478	-754.076090
0.0000000700	-51290.688315	-752.645467
0.0000000800	-51157.681111	-751.098781
0.0000000900	-51005.136881	-749.590490
0.0000001000	-50820.392821	-748.206173
0.0000001100	-50597.963821	-746.948428
0.0000001200	-50360.091077	-745.761358
0.0000001300	-50106.851362	-744.579794
0.0000001400	-49833.661858	-743.377725
0.0000001500	-49548.068768	-742.190858
0.0000001600	-49249.018062	-741.100726
0.0000001700	-48927.497653	-740.186559
0.0000001800	-48589.020646	-739.467305
0.0000001900	-48244.601514	-738.862053
0.0000002000	-47876.934125	-738.189712
0.0000002100	-47488.354142	-737.211501
0.0000002200	-47086.698594	-735.700513
0.0000002300	-46665.459957	-733.510278
0.0000002400	-46234.841631	-730.614428
0.0000002500	-45796.601237	-727.102059
0.0000002600	-45338.518536	-723.132296
0.0000002700	-44864.258696	-718.868395
0.0000002800	-44380.375306	-714.418900
0.0000002900	-43877.504935	-709.808450
0.0000003000	-43356.777481	-704.986494
0.0000003100	-42822.271777	-699.865602
0.0000003200	-42267.709709	-694.369594
0.0000003300	-41684.093640	-688.470127
0.0000003400	-41078.877645	-682.198141
0.0000003500	-40467.520821	-675.629354
0.0000003600	-39846.632574	-668.854136
0.0000003700	-39211.553316	-661.946865
0.0000003800	-38564.711739	-654.946890
0.0000003900	-37908.261965	-647.855214
0.0000004000	-37238.247999	-640.642853
0.0000004100	-36552.149020	-633.262670
0.0000004200	-35855.509747	-625.658013
0.0000004300	-35152.179599	-617.766731
0.0000004400	-34439.654016	-609.524368
0.0000004500	-33703.131427	-600.871887
0.0000004600	-32939.586124	-591.770074
0.0000004700	-32166.371207	-582.216668
0.0000004800	-31387.366805	-572.257293
0.0000004900	-30600.816203	-561.980891
0.0000005000	-29805.772851	-551.495936
0.0000005100	-28996.966604	-540.892840
0.0000005200	-28175.145305	-530.206237
0.0000005300	-27346.465138	-519.393527
0.0000005400	-26509.780851	-508.340991
0.0000005500	-25663.870419	-496.897753
0.0000005600	-24806.763070	-484.925604
0.0000005700	-23941.208131	-472.345136
0.0000005800	-23073.713128	-459.159552
0.0000005900	-22201.162034	-445.446847
0.0000006000	-21323.402212	-431.324589
0.0000006100	-20437.072868	-416.903108
0.0000006200	-19537.988594	-402.247082
0.0000006300	-18624.637441	-387.360524
0.0000006400	-17698.439231	-372.198633
0.0000006500	-16764.389541	-356.697456
0.0000006600	-15821.953678	-340.804894
0.0000006700	-14871.100934	-324.497684
0.0000006800	-13917.804143	-307.777562
0.0000006900	-12962.887922	-290.651472
0.0000007000	-12005.328949	-273.109248
0.0000007100	-11047.831394	-255.113442
0.0000007200	-10085.965082	-236.609266
0.0000007300	-9122.448631	-217.551536
0.0000007400	-8153.066826	-197.935659
0.0000007500	-7182.080947	-177.816369
0.0000007600	-6209.216420	-157.302742
0.0000007700	-5229.997007	-136.529021
0.0000007800	-4255.436278	-115.612418
0.0000007900	-3277.714365	-94.615878
0.0000008000	-2295.180225	-73.532313
0.0000008100	-1316.113452	-52.297776
0.0000008200	-335.901428	-30.828611
0.0000008300	644.952769	-9.067563
0.0000008400	1616.382118	12.979440
0.0000008500	2585.397225	35.229421
0.0000008600	3562.599800	57.534884
0.0000008700	4543.759277	79.715574
0.0000008800	5524.384062	101.595869
0.0000008900	6501.724828	123.034289
0.0000009000	7470.878124	143.937452
0.0000009100	8434.684501	164.258822
0.0000009200	9400.247594	183.988703
0.0000009300	10369.706170	203.143528
0.0000009400	11335.147331	221.759427
0.0000009500	12293.928328	239.889833
0.0000009600	13248.340566	257.602763
0.0000009700	14198.903384	274.972784
0.0000009800	15149.160923	292.065935
0.0000009900	16090.650237	308.920912
0.0000010000	17026.838695	325.533721
0.0000010100	17959.086510	341.853412
0.0000010200	18876.945516	357.792800
0.0000010300	19777.283426	373.252064
0.0000010400	20664.407583	388.147620
0.0000010500	21549.423681	402.436348
0.0000010600	22428.848997	416.127182
0.0000010700	23301.446154	429.277130
0.0000010800	24170.927285	441.974631
0.0000010900	25034.130303	454.317044
0.0000011000	25889.099789	466.389654
0.0000011100	26730.810361	478.251225
0.0000011200	27560.300696	489.927499
0.0000011300	28384.306825	501.411215
0.0000011400	29201.164161	512.666411
0.0000011500	30006.335950	523.635690
0.0000011600	30799.959478	534.250559
0.0000011700	31586.235510	544.445235
0.0000011800	32366.218073	554.172958
0.0000011900	33135.721760	563.421351
0.0000012000	33894.441290	572.221587
0.0000012100	34634.143131	580.646431
0.0000012200	35348.793031	588.795424
0.0000012300	36050.122601	596.770356
0.0000012400	36746.334664	604.648529
0.0000012500	37433.855274	612.462949
0.0000012600	38105.489575	620.196354
0.0000012700	38764.689580	627.790649
0.0000012800	39413.624766	635.167383
0.0000012900	40046.108241	642.251010
0.0000013000	40665.607374	648.986721
0.0000013100	41277.071679	655.348259
0.0000013200	41874.788441	661.336447
0.0000013300	42457.978203	666.973111
0.0000013400	43018.499559	672.295832
0.0000013500	43549.829630	677.356112
0.0000013600	44064.463223	682.219196
0.0000013700	44565.853257	686.960671
0.0000013800	45053.372915	691.655340
0.0000013900	45530.550981	696.358046
0.0000014000	45995.417587	701.081956
0.0000014100	46440.701103	705.784068
0.0000014200	46871.732190	710.367323
0.0000014300	47297.035209	714.703191
0.0000014400	47704.893907	718.669798
0.0000014500	48087.441448	722.192787
0.0000014600	48455.247930	725.273138
0.0000014700	48812.346124	727.990095
0.0000014800	49155.712131	730.476905
0.0000014900	49477.112418	732.878109
0.0000015000	49770.298676	735.304673
0.0000015100	50045.795846	737.803709
0.0000015200	50305.238712	740.352768
0.0000015300	50542.471091	742.877881
0.0000015400	50755.141063	745.284816
0.0000015500	50944.164468	747.488966
0.0000015600	51115.116732	749.432397
0.0000015700	51268.288685	751.084949
0.0000015800	51402.549525	752.435133
0.0000015900	51523.184755	753.481246
0.0000016000	51624.954936	754.231138
0.0000016100	51708.806617	754.711747
0.0000016200	51785.677497	754.981187
0.0000016300	51846.708131	755.131806
0.0000016400	51878.807601	755.275350
0.0000016500	51884.801100	755.510360
0.0000016600	51877.901480	755.882724
0.0000016700	51863.181088	756.357116
0.0000016800	51829.153081	756.815431
0.0000016900	51776.152545	757.088181
0.0000017000	51713.177114	757.010122
0.0000017100	51633.292054	756.479311
0.0000017200	51538.986570	755.495276
0.0000017300	51435.439588	754.159636
0.0000017400	51320.421116	752.638219
0.0000017500	51180.351609	751.100657
0.0000017600	50997.679263	749.663466
0.0000017700	50774.694582	748.360932
0.0000017800	50535.853395	747.155148
0.0000017900	50295.041435	745.978139
0.0000018000	50041.352613	744.783930
0.0000018100	49779.536836	743.583677
0.0000018200	49517.049082	742.445224
0.0000018300	49224.821804	741.455703
0.0000018400	48891.319383	740.664084
0.0000018500	48552.194567	740.031192
0.0000018600	48196.039094	739.412437
0.0000018700	47815.090898	738.584362
0.0000018800	47428.811137	737.306476
0.0000018900	47030.219915	735.393854
0.0000019000	46615.742384	732.770913
0.0000019100	46178.733732	729.484851
0.0000019200	45726.785319	725.674600
0.0000019300	45258.355392	721.509812
0.0000019400	44762.047424	717.126012
0.0000019500	44253.091103	712.581846
0.0000019600	43729.241989	707.853014
0.0000019700	43185.686949	702.860869
0.0000019800	42632.859702	697.519388
0.0000019900	42065.582226	691.778516
0.0000020000	41481.853041	685.646330
0.0000020100	40881.320802	679.184005
0.0000020200	40268.354267	672.480116
0.0000020300	39646.482222	665.618428
0.0000020400	39011.213979	658.653300
0.0000020500	38355.659960	651.600286
0.0000020600	37679.132832	644.440775
0.0000020700	36984.779331	637.133456
0.0000020800	36275.333428	629.624721
0.0000020900	35557.959273	621.854278
0.0000021000	34830.351008	613.758008
0.0000021100	34087.543765	605.273379
0.0000021200	33334.974781	596.351337
0.0000021300	32575.899177	586.973227
0.0000021400	31804.282700	577.165377
0.0000021500	31017.390473	567.001503
0.0000021600	30219.270620	556.586358
0.0000021700	29416.751300	546.022307
0.0000021800	28608.687262	535.369701
0.0000021900	27790.999673	524.617221
0.0000022000	26965.261901	513.676434
0.0000022100	26120.247223	502.405609
0.0000022200	25251.937321	490.655385
0.0000022300	24372.720426	478.318841
0.0000022400	23485.636697	465.365851
0.0000022500	22592.916123	451.847964
0.0000022600	21699.126165	437.872584
0.0000022700	20807.413557	423.558359
0.0000022800	19914.509634	408.991207
0.0000022900	19009.676303	394.198967
0.0000023000	18086.833249	379.153142
0.0000023100	17155.450478	363.793284
0.0000023200	16223.013678	348.059565
0.0000023300	15288.682877	331.916686
0.0000023400	14350.365370	315.358271
0.0000023500	13407.480402	298.392093
0.0000023600	12456.392610	281.016875
0.0000023700	11497.316053	263.205871
0.0000023800	10532.571942	244.908630
0.0000023900	9562.741032	226.072357
0.0000024000	8590.664778	206.673256
0.0000024100	7618.038478	186.741891
0.0000024200	6644.006805	166.368265
0.0000024300	5666.843752	145.681407
0.0000024400	4688.458676	124.810359
0.0000024500	3709.706902	103.842744
0.0000024600	2730.955128	82.799044
0.0000024700	1752.203354	61.634293
0.0000024800	773.451580	40.267167
0.0000024900	-204.093524	18.624748
0.0000025000	-1181.271931	-3.314979
0.0000025100	-2158.786327	-25.499219
0.0000025200	-3135.964733	-47.802836
0.0000025300	-4114.013821	-70.053964
0.0000025400	-5092.597600	-92.070953
0.0000025500	-6069.440019	-113.696306
0.0000025600	-7045.045059	-134.817149
0.0000025700	-8017.350725	-155.369437
0.0000025800	-8986.662297	-175.330402
0.0000025900	-9956.508561	-194.707267
0.0000026000	-10919.970135	-213.528866
0.0000026100	-11869.912675	-231.842019
0.0000026200	-12819.152528	-249.709589
0.0000026300	-13768.255096	-267.204995
0.0000026400	-14708.008685	-284.399796
0.0000026500	-15644.814243	-301.345637
0.0000026600	-16579.389811	-318.056559
0.0000026700	-17509.718552	-334.499633
0.0000026800	-18429.461840	-350.599687
0.0000026900	-19341.674281	-366.258498
0.0000027000	-20253.794596	-381.382738
0.0000027100	-21160.248262	-395.911182
0.0000027200	-22057.429721	-409.831930
0.0000027300	-22948.775631	-423.184512
0.0000027400	-23836.837522	-436.047554
0.0000027500	-24720.163957	-448.517647
0.0000027600	-25591.499567	-460.686972
0.0000027700	-26445.589558	-472.625920
0.0000027800	-27287.031195	-484.373512
0.0000027900	-28113.457203	-495.935134
0.0000028000	-28927.418207	-507.285383
0.0000028100	-29735.375669	-518.374236
0.0000028200	-30536.016341	-529.136104
0.0000028300	-31332.502314	-539.502286
0.0000028400	-32114.354710	-549.416556
0.0000028500	-32876.318737	-558.851468
0.0000028600	-33624.748374	-567.820622
0.0000028700	-34363.157055	-576.381508
0.0000028800	-35091.117568	-584.625668
0.0000028900	-35808.736490	-592.657277
0.0000029000	-36517.679313	-600.566197
0.0000029100	-37215.409865	-608.404416
0.0000029200	-37897.055404	-616.174113
0.0000029300	-38554.856577	-623.831243
0.0000029400	-39192.127207	-631.302530
0.0000029500	-39820.400200	-638.508705
0.0000029600	-40441.738457	-645.385286
0.0000029700	-41047.205759	-651.894534
0.0000029800	-41635.350670	-658.027234
0.0000029900	-42204.966521	-663.797733
0.0000030000	-42762.835407	-669.237840
0.0000030100	-43311.416732	-674.393611
0.0000030200	-43847.762465	-679.324997
0.0000030300	-44373.277977	-684.104355
0.0000030400	-44879.012601	-688.808697
0.0000030500	-45354.685258	-693.503343
0.0000030600	-45809.551897	-698.220202
0.0000030700	-46256.949107	-702.939172
0.0000030800	-46690.751416	-707.582859
0.0000030900	-47108.102015	-712.031196
0.0000031000	-47507.763524	-716.154623
0.0000031100	-47891.004033	-719.855736
0.0000031200	-48262.528286	-723.104022
0.0000031300	-48624.398280	-725.949447
0.0000031400	-48975.667466	-728.508425
0.0000031500	-49300.312249	-730.926696
0.0000031600	-49590.495599	-733.333158
0.0000031700	-49859.797064	-735.802153
0.0000031800	-50109.851427	-738.337575
0.0000031900	-50344.798034	-740.882383
0.0000032000	-50570.732555	-743.346346
0.0000032100	-50775.541329	-745.638159
0.0000032200	-50961.408281	-747.688437
0.0000032300	-51138.858351	-749.456842
0.0000032400	-51299.628204	-750.925860
0.0000032500	-51429.144775	-752.090573
0.0000032600	-51531.180713	-752.954400
0.0000032700	-51617.940901	-753.535238
0.0000032800	-51689.272699	-753.877830
0.0000032900	-51747.544287	-754.061737
0.0000033000	-51789.242233	-754.194124
0.0000033100	-51808.714339	-754.383399
0.0000033200	-51816.561413	-754.700564
