Tiempo (s)	 Campo (A/m)	 Magnetizacion (A/m)
0.000000e+00	-5.176574e+04	-8.828764e+02
1.000000e-08	-5.175172e+04	-8.829772e+02
2.000000e-08	-5.172428e+04	-8.849870e+02
3.000000e-08	-5.168417e+04	-8.863651e+02
4.000000e-08	-5.163239e+04	-8.848746e+02
5.000000e-08	-5.156891e+04	-8.817702e+02
6.000000e-08	-5.149178e+04	-8.807896e+02
7.000000e-08	-5.139777e+04	-8.836807e+02
8.000000e-08	-5.128442e+04	-8.875962e+02
9.000000e-08	-5.115214e+04	-8.878845e+02
1.000000e-07	-5.100466e+04	-8.833939e+02
1.100000e-07	-5.084693e+04	-8.781074e+02
1.200000e-07	-5.068168e+04	-8.769664e+02
1.300000e-07	-5.050746e+04	-8.804847e+02
1.400000e-07	-5.032004e+04	-8.842017e+02
1.500000e-07	-5.011612e+04	-8.834829e+02
1.600000e-07	-4.989624e+04	-8.782198e+02
1.700000e-07	-4.966413e+04	-8.724557e+02
1.800000e-07	-4.942304e+04	-8.699064e+02
1.900000e-07	-4.917266e+04	-8.706038e+02
2.000000e-07	-4.890950e+04	-8.718745e+02
2.100000e-07	-4.863017e+04	-8.716678e+02
2.200000e-07	-4.833430e+04	-8.701668e+02
2.300000e-07	-4.802428e+04	-8.684839e+02
2.400000e-07	-4.770258e+04	-8.668511e+02
2.500000e-07	-4.736946e+04	-8.646820e+02
2.600000e-07	-4.702327e+04	-8.619436e+02
2.700000e-07	-4.666241e+04	-8.596119e+02
2.800000e-07	-4.628676e+04	-8.585292e+02
2.900000e-07	-4.589740e+04	-8.582899e+02
3.000000e-07	-4.549548e+04	-8.576891e+02
3.100000e-07	-4.508166e+04	-8.561099e+02
3.200000e-07	-4.465618e+04	-8.540242e+02
3.300000e-07	-4.421891e+04	-8.520679e+02
3.400000e-07	-4.376926e+04	-8.500419e+02
3.500000e-07	-4.330634e+04	-8.471600e+02
3.600000e-07	-4.282998e+04	-8.431116e+02
3.700000e-07	-4.234135e+04	-8.384687e+02
3.800000e-07	-4.184234e+04	-8.339555e+02
3.900000e-07	-4.133394e+04	-8.296304e+02
4.000000e-07	-4.081526e+04	-8.250389e+02
4.100000e-07	-4.028459e+04	-8.199943e+02
4.200000e-07	-3.974120e+04	-8.148397e+02
4.300000e-07	-3.918599e+04	-8.098684e+02
4.400000e-07	-3.862020e+04	-8.047993e+02
4.500000e-07	-3.804387e+04	-7.991043e+02
4.600000e-07	-3.745607e+04	-7.927538e+02
4.700000e-07	-3.685671e+04	-7.863329e+02
4.800000e-07	-3.624765e+04	-7.803251e+02
4.900000e-07	-3.563144e+04	-7.744964e+02
5.000000e-07	-3.500898e+04	-7.681843e+02
5.100000e-07	-3.437865e+04	-7.611045e+02
5.200000e-07	-3.373814e+04	-7.536426e+02
5.300000e-07	-3.308689e+04	-7.463186e+02
5.400000e-07	-3.242664e+04	-7.391745e+02
5.500000e-07	-3.175947e+04	-7.318345e+02
5.600000e-07	-3.108564e+04	-7.240348e+02
5.700000e-07	-3.040352e+04	-7.158603e+02
5.800000e-07	-2.971145e+04	-7.074555e+02
5.900000e-07	-2.900936e+04	-6.987492e+02
6.000000e-07	-2.829864e+04	-6.896332e+02
6.100000e-07	-2.758059e+04	-6.802762e+02
6.200000e-07	-2.685558e+04	-6.709956e+02
6.300000e-07	-2.612343e+04	-6.617686e+02
6.400000e-07	-2.538440e+04	-6.520908e+02
6.500000e-07	-2.463931e+04	-6.415100e+02
6.600000e-07	-2.388874e+04	-6.302278e+02
6.700000e-07	-2.313234e+04	-6.189586e+02
6.800000e-07	-2.236905e+04	-6.081319e+02
6.900000e-07	-2.159804e+04	-5.973866e+02
7.000000e-07	-2.081938e+04	-5.859835e+02
7.100000e-07	-2.003398e+04	-5.736369e+02
7.200000e-07	-1.924298e+04	-5.607733e+02
7.300000e-07	-1.844719e+04	-5.479592e+02
7.400000e-07	-1.764712e+04	-5.352464e+02
7.500000e-07	-1.684314e+04	-5.221899e+02
7.600000e-07	-1.603570e+04	-5.084022e+02
7.700000e-07	-1.522510e+04	-4.939112e+02
7.800000e-07	-1.441117e+04	-4.789801e+02
7.900000e-07	-1.359309e+04	-4.637684e+02
8.000000e-07	-1.276979e+04	-4.482935e+02
8.100000e-07	-1.194079e+04	-4.325992e+02
8.200000e-07	-1.110679e+04	-4.167431e+02
8.300000e-07	-1.026942e+04	-4.005821e+02
8.400000e-07	-9.430194e+03	-3.837574e+02
8.500000e-07	-8.589453e+03	-3.660536e+02
8.600000e-07	-7.746499e+03	-3.477151e+02
8.700000e-07	-6.900661e+03	-3.292383e+02
8.800000e-07	-6.052292e+03	-3.108056e+02
8.900000e-07	-5.202650e+03	-2.920468e+02
9.000000e-07	-4.352845e+03	-2.724573e+02
9.100000e-07	-3.503030e+03	-2.519765e+02
9.200000e-07	-2.652664e+03	-2.310178e+02
9.300000e-07	-1.801404e+03	-2.099365e+02
9.400000e-07	-9.495349e+02	-1.886180e+02
9.500000e-07	-9.750025e+01	-1.666781e+02
9.600000e-07	7.547354e+02	-1.439617e+02
9.700000e-07	1.607573e+03	-1.206857e+02
9.800000e-07	2.460967e+03	-9.710033e+01
9.900000e-07	3.313920e+03	-7.318343e+01
1.000000e-06	4.164989e+03	-4.877699e+01
1.010000e-06	5.013349e+03	-2.392205e+01
1.020000e-06	5.859302e+03	1.121180e+00
1.030000e-06	6.703743e+03	2.620424e+01
1.040000e-06	7.547224e+03	5.148076e+01
1.050000e-06	8.389562e+03	7.714216e+01
1.060000e-06	9.230176e+03	1.030271e+02
1.070000e-06	1.006850e+04	1.286443e+02
1.080000e-06	1.090393e+04	1.536205e+02
1.090000e-06	1.173556e+04	1.780255e+02
1.100000e-06	1.256231e+04	2.021818e+02
1.110000e-06	1.338363e+04	2.262214e+02
1.120000e-06	1.420005e+04	2.499305e+02
1.130000e-06	1.501278e+04	2.730072e+02
1.140000e-06	1.582275e+04	2.953413e+02
1.150000e-06	1.662980e+04	3.169943e+02
1.160000e-06	1.743299e+04	3.380206e+02
1.170000e-06	1.823154e+04	3.584394e+02
1.180000e-06	1.902553e+04	3.783447e+02
1.190000e-06	1.981543e+04	3.978696e+02
1.200000e-06	2.060116e+04	4.169629e+02
1.210000e-06	2.138160e+04	4.353133e+02
1.220000e-06	2.215521e+04	4.526550e+02
1.230000e-06	2.292118e+04	4.691480e+02
1.240000e-06	2.367986e+04	4.853103e+02
1.250000e-06	2.443218e+04	5.014858e+02
1.260000e-06	2.517853e+04	5.174500e+02
1.270000e-06	2.591838e+04	5.326515e+02
1.280000e-06	2.665084e+04	5.468234e+02
1.290000e-06	2.737550e+04	5.602457e+02
1.300000e-06	2.809250e+04	5.733825e+02
1.310000e-06	2.880188e+04	5.863813e+02
1.320000e-06	2.950311e+04	5.990266e+02
1.330000e-06	3.019545e+04	6.111060e+02
1.340000e-06	3.087890e+04	6.226543e+02
1.350000e-06	3.155436e+04	6.338114e+02
1.360000e-06	3.222286e+04	6.446043e+02
1.370000e-06	3.288433e+04	6.550018e+02
1.380000e-06	3.353756e+04	6.651005e+02
1.390000e-06	3.418124e+04	6.750536e+02
1.400000e-06	3.481512e+04	6.847764e+02
1.410000e-06	3.543996e+04	6.939066e+02
1.420000e-06	3.605647e+04	7.022322e+02
1.430000e-06	3.666442e+04	7.100867e+02
1.440000e-06	3.726297e+04	7.181005e+02
1.450000e-06	3.785160e+04	7.264802e+02
1.460000e-06	3.843049e+04	7.346942e+02
1.470000e-06	3.899982e+04	7.420399e+02
1.480000e-06	3.955902e+04	7.484688e+02
1.490000e-06	4.010685e+04	7.546551e+02
1.500000e-06	4.064243e+04	7.612052e+02
1.510000e-06	4.116587e+04	7.679775e+02
1.520000e-06	4.167795e+04	7.743360e+02
1.530000e-06	4.217915e+04	7.799676e+02
1.540000e-06	4.266917e+04	7.852091e+02
1.550000e-06	4.314736e+04	7.905292e+02
1.560000e-06	4.361347e+04	7.959283e+02
1.570000e-06	4.406783e+04	8.010533e+02
1.580000e-06	4.451092e+04	8.057854e+02
1.590000e-06	4.494297e+04	8.104104e+02
1.600000e-06	4.536384e+04	8.151244e+02
1.610000e-06	4.577302e+04	8.196346e+02
1.620000e-06	4.616968e+04	8.235175e+02
1.630000e-06	4.655273e+04	8.268906e+02
1.640000e-06	4.692133e+04	8.304027e+02
1.650000e-06	4.727552e+04	8.344271e+02
1.660000e-06	4.761623e+04	8.385004e+02
1.670000e-06	4.794457e+04	8.418387e+02
1.680000e-06	4.826100e+04	8.443434e+02
1.690000e-06	4.856529e+04	8.467759e+02
1.700000e-06	4.885712e+04	8.498086e+02
1.710000e-06	4.913653e+04	8.531602e+02
1.720000e-06	4.940355e+04	8.559611e+02
1.730000e-06	4.965775e+04	8.578875e+02
1.740000e-06	4.989838e+04	8.595647e+02
1.750000e-06	5.012517e+04	8.617076e+02
1.760000e-06	5.033864e+04	8.641670e+02
1.770000e-06	5.053943e+04	8.661811e+02
1.780000e-06	5.072724e+04	8.674787e+02
1.790000e-06	5.090088e+04	8.686837e+02
1.800000e-06	5.105953e+04	8.704212e+02
1.810000e-06	5.120360e+04	8.723573e+02
1.820000e-06	5.133425e+04	8.735787e+02
1.830000e-06	5.145191e+04	8.738802e+02
1.840000e-06	5.155578e+04	8.741755e+02
1.850000e-06	5.164493e+04	8.753367e+02
1.860000e-06	5.171952e+04	8.769601e+02
1.870000e-06	5.178059e+04	8.778149e+02
1.880000e-06	5.182851e+04	8.775194e+02
1.890000e-06	5.186224e+04	8.771933e+02
1.900000e-06	5.188074e+04	8.780334e+02
1.910000e-06	5.188480e+04	8.795745e+02
1.920000e-06	5.187695e+04	8.800541e+02
1.930000e-06	5.185895e+04	8.786609e+02
1.940000e-06	5.182988e+04	8.768042e+02
1.950000e-06	5.178721e+04	8.765250e+02
1.960000e-06	5.173016e+04	8.778268e+02
1.970000e-06	5.166115e+04	8.783671e+02
1.980000e-06	5.158299e+04	8.762179e+02
1.990000e-06	5.149427e+04	8.724704e+02
2.000000e-06	5.138834e+04	8.703576e+02
2.010000e-06	5.125787e+04	8.716844e+02
2.020000e-06	5.110156e+04	8.747197e+02
2.030000e-06	5.092637e+04	8.760748e+02
2.040000e-06	5.074277e+04	8.743781e+02
2.050000e-06	5.055710e+04	8.714929e+02
2.060000e-06	5.036748e+04	8.700899e+02
2.070000e-06	5.016646e+04	8.706970e+02
2.080000e-06	4.994745e+04	8.716587e+02
2.090000e-06	4.970932e+04	8.716146e+02
2.100000e-06	4.945587e+04	8.711160e+02
2.110000e-06	4.919178e+04	8.714596e+02
2.120000e-06	4.891894e+04	8.725727e+02
2.130000e-06	4.863559e+04	8.729039e+02
2.140000e-06	4.833836e+04	8.714804e+02
2.150000e-06	4.802502e+04	8.693830e+02
2.160000e-06	4.769607e+04	8.686525e+02
2.170000e-06	4.735417e+04	8.699628e+02
2.180000e-06	4.700205e+04	8.719248e+02
2.190000e-06	4.664034e+04	8.727396e+02
2.200000e-06	4.626703e+04	8.720145e+02
2.210000e-06	4.587904e+04	8.705983e+02
2.220000e-06	4.547493e+04	8.690138e+02
2.230000e-06	4.505624e+04	8.667593e+02
2.240000e-06	4.462630e+04	8.633213e+02
2.250000e-06	4.418737e+04	8.592960e+02
2.260000e-06	4.373889e+04	8.559002e+02
2.270000e-06	4.327807e+04	8.534411e+02
2.280000e-06	4.280256e+04	8.508301e+02
2.290000e-06	4.231227e+04	8.468985e+02
2.300000e-06	4.180920e+04	8.418770e+02
2.310000e-06	4.129549e+04	8.371303e+02
2.320000e-06	4.077180e+04	8.334735e+02
2.330000e-06	4.023739e+04	8.301897e+02
2.340000e-06	3.969132e+04	8.259396e+02
2.350000e-06	3.913350e+04	8.203487e+02
2.360000e-06	3.856474e+04	8.143037e+02
2.370000e-06	3.798612e+04	8.087216e+02
2.380000e-06	3.739852e+04	8.034509e+02
2.390000e-06	3.680225e+04	7.976240e+02
2.400000e-06	3.619699e+04	7.908430e+02
2.410000e-06	3.558176e+04	7.836270e+02
2.420000e-06	3.495546e+04	7.766724e+02
2.430000e-06	3.431791e+04	7.700181e+02
2.440000e-06	3.367056e+04	7.631572e+02
2.450000e-06	3.301578e+04	7.557716e+02
2.460000e-06	3.235514e+04	7.480313e+02
2.470000e-06	3.168788e+04	7.401719e+02
2.480000e-06	3.101149e+04	7.321036e+02
2.490000e-06	3.032392e+04	7.236340e+02
2.500000e-06	2.962562e+04	7.148845e+02
2.510000e-06	2.891924e+04	7.061759e+02
2.520000e-06	2.820735e+04	6.974939e+02
2.530000e-06	2.749035e+04	6.883628e+02
2.540000e-06	2.676650e+04	6.784268e+02
2.550000e-06	2.603393e+04	6.679860e+02
2.560000e-06	2.529243e+04	6.576830e+02
2.570000e-06	2.454333e+04	6.476697e+02
2.580000e-06	2.378801e+04	6.373557e+02
2.590000e-06	2.302692e+04	6.261316e+02
2.600000e-06	2.225993e+04	6.141566e+02
2.610000e-06	2.148723e+04	6.021730e+02
2.620000e-06	2.070955e+04	5.905712e+02
2.630000e-06	1.992736e+04	5.789154e+02
2.640000e-06	1.914036e+04	5.665225e+02
2.650000e-06	1.834793e+04	5.533033e+02
2.660000e-06	1.755009e+04	5.397690e+02
2.670000e-06	1.674760e+04	5.262653e+02
2.680000e-06	1.594106e+04	5.125196e+02
2.690000e-06	1.513018e+04	4.980970e+02
2.700000e-06	1.431419e+04	4.830740e+02
2.710000e-06	1.349309e+04	4.679454e+02
2.720000e-06	1.266806e+04	4.528815e+02
2.730000e-06	1.184050e+04	4.373993e+02
2.740000e-06	1.101080e+04	4.209650e+02
2.750000e-06	1.017816e+04	4.037359e+02
2.760000e-06	9.341859e+03	3.864009e+02
2.770000e-06	8.502299e+03	3.692788e+02
2.780000e-06	7.660810e+03	3.518661e+02
2.790000e-06	6.818353e+03	3.334625e+02
2.800000e-06	5.974711e+03	3.140651e+02
2.810000e-06	5.128950e+03	2.943513e+02
2.820000e-06	4.280512e+03	2.747766e+02
2.830000e-06	3.429750e+03	2.549890e+02
2.840000e-06	2.577596e+03	2.343209e+02
2.850000e-06	1.724979e+03	2.126759e+02
2.860000e-06	8.725721e+02	1.906184e+02
2.870000e-06	2.072421e+01	1.685763e+02
2.880000e-06	-8.306705e+02	1.462628e+02
2.890000e-06	-1.682121e+03	1.230973e+02
2.900000e-06	-2.533907e+03	9.902444e+01
2.910000e-06	-3.385260e+03	7.459784e+01
2.920000e-06	-4.234424e+03	5.022495e+01
2.930000e-06	-5.079985e+03	2.563623e+01
2.940000e-06	-5.922297e+03	3.290178e-01
2.950000e-06	-6.763308e+03	-2.562245e+01
2.960000e-06	-7.604630e+03	-5.152760e+01
2.970000e-06	-8.445791e+03	-7.690011e+01
2.980000e-06	-9.284611e+03	-1.020307e+02
2.990000e-06	-1.011939e+04	-1.275123e+02
3.000000e-06	-1.095051e+04	-1.533336e+02
3.010000e-06	-1.177963e+04	-1.787614e+02
3.020000e-06	-1.260742e+04	-2.031854e+02
3.030000e-06	-1.343228e+04	-2.268077e+02
3.040000e-06	-1.425155e+04	-2.502715e+02
3.050000e-06	-1.506367e+04	-2.737448e+02
3.060000e-06	-1.586927e+04	-2.966842e+02
3.070000e-06	-1.667007e+04	-3.185620e+02
3.080000e-06	-1.746733e+04	-3.395354e+02
3.090000e-06	-1.826119e+04	-3.601563e+02
3.100000e-06	-1.905114e+04	-3.805567e+02
3.110000e-06	-1.983655e+04	-4.002606e+02
3.120000e-06	-2.061662e+04	-4.188800e+02
3.130000e-06	-2.139048e+04	-4.367116e+02
3.140000e-06	-2.215779e+04	-4.543776e+02
3.150000e-06	-2.291932e+04	-4.719869e+02
3.160000e-06	-2.367636e+04	-4.889798e+02
3.170000e-06	-2.442920e+04	-5.048900e+02
3.180000e-06	-2.517612e+04	-5.199867e+02
3.190000e-06	-2.591443e+04	-5.349081e+02
3.200000e-06	-2.664266e+04	-5.497809e+02
3.210000e-06	-2.736182e+04	-5.640450e+02
3.220000e-06	-2.807435e+04	-5.772414e+02
3.230000e-06	-2.878182e+04	-5.896870e+02
3.240000e-06	-2.948358e+04	-6.020947e+02
3.250000e-06	-3.017749e+04	-6.146419e+02
3.260000e-06	-3.086188e+04	-6.267646e+02
3.270000e-06	-3.153664e+04	-6.379719e+02
3.280000e-06	-3.220285e+04	-6.485605e+02
3.290000e-06	-3.286154e+04	-6.592222e+02
3.300000e-06	-3.351274e+04	-6.700592e+02
3.310000e-06	-3.415550e+04	-6.803739e+02
3.320000e-06	-3.478847e+04	-6.895742e+02
3.330000e-06	-3.541073e+04	-6.979967e+02
3.340000e-06	-3.602250e+04	-7.065156e+02
3.350000e-06	-3.662507e+04	-7.154258e+02
3.360000e-06	-3.721998e+04	-7.240952e+02
3.370000e-06	-3.780760e+04	-7.318615e+02
3.380000e-06	-3.838650e+04	-7.389658e+02
3.390000e-06	-3.895417e+04	-7.462480e+02
3.400000e-06	-3.950886e+04	-7.539979e+02
3.410000e-06	-4.005066e+04	-7.615183e+02
3.420000e-06	-4.058119e+04	-7.680095e+02
3.430000e-06	-4.110193e+04	-7.736035e+02
3.440000e-06	-4.161312e+04	-7.791680e+02
3.450000e-06	-4.211386e+04	-7.851614e+02
3.460000e-06	-4.260313e+04	-7.911006e+02
3.470000e-06	-4.308050e+04	-7.963419e+02
3.480000e-06	-4.354611e+04	-8.010626e+02
3.490000e-06	-4.400015e+04	-8.060506e+02
3.500000e-06	-4.444269e+04	-8.115676e+02
3.510000e-06	-4.487371e+04	-8.168790e+02
3.520000e-06	-4.529309e+04	-8.211637e+02
3.530000e-06	-4.570029e+04	-8.246096e+02
3.540000e-06	-4.609426e+04	-8.281874e+02
3.550000e-06	-4.647389e+04	-8.323719e+02
3.560000e-06	-4.683866e+04	-8.365405e+02
3.570000e-06	-4.718904e+04	-8.398889e+02
3.580000e-06	-4.752615e+04	-8.426122e+02
3.590000e-06	-4.785107e+04	-8.456928e+02
3.600000e-06	-4.816442e+04	-8.495276e+02
3.610000e-06	-4.846628e+04	-8.532807e+02
3.620000e-06	-4.875639e+04	-8.559321e+02
3.630000e-06	-4.903425e+04	-8.576700e+02
3.640000e-06	-4.929929e+04	-8.597122e+02
3.650000e-06	-4.955112e+04	-8.627117e+02
3.660000e-06	-4.978963e+04	-8.658643e+02
3.670000e-06	-5.001497e+04	-8.679714e+02
3.680000e-06	-5.022726e+04	-8.690764e+02
3.690000e-06	-5.042643e+04	-8.704483e+02
3.700000e-06	-5.061222e+04	-8.728683e+02
3.710000e-06	-5.078437e+04	-8.755165e+02
3.720000e-06	-5.094274e+04	-8.770322e+02
3.730000e-06	-5.108729e+04	-8.773825e+02
3.740000e-06	-5.121802e+04	-8.779834e+02
3.750000e-06	-5.133492e+04	-8.798044e+02
3.760000e-06	-5.143795e+04	-8.819804e+02
3.770000e-06	-5.152692e+04	-8.829039e+02
3.780000e-06	-5.160159e+04	-8.824414e+02
3.790000e-06	-5.166186e+04	-8.822501e+02
3.800000e-06	-5.170807e+04	-8.835941e+02
3.810000e-06	-5.174094e+04	-8.855088e+02
3.820000e-06	-5.176114e+04	-8.859253e+02
3.830000e-06	-5.176873e+04	-8.845087e+02
