Tiempo_(s)	Campo_(A/m)	Magnetizacion_(A/m)
0.0000000000	-51824.651850	-715.779635
0.0000000100	-51819.827789	-715.550013
0.0000000200	-51785.339112	-715.218178
0.0000000300	-51728.369857	-714.803314
0.0000000400	-51658.969201	-714.324069
0.0000000500	-51576.654229	-713.796196
0.0000000600	-51485.713309	-713.228228
0.0000000700	-51377.996577	-712.616595
0.0000000800	-51249.698579	-711.942567
0.0000000900	-51102.648921	-711.173641
0.0000001000	-50926.011183	-710.271055
0.0000001100	-50712.016365	-709.203256
0.0000001200	-50470.776519	-707.962662
0.0000001300	-50211.959955	-706.580798
0.0000001400	-49938.863702	-705.135690
0.0000001500	-49656.099138	-703.746104
0.0000001600	-49366.531403	-702.550146
0.0000001700	-49058.943209	-701.670428
0.0000001800	-48718.488587	-701.173345
0.0000001900	-48368.314631	-701.033990
0.0000002000	-48006.535691	-701.119165
0.0000002100	-47617.950444	-701.197650
0.0000002200	-47220.128776	-700.979632
0.0000002300	-46809.425136	-700.177944
0.0000002400	-46380.116076	-698.575453
0.0000002500	-45935.898173	-696.078882
0.0000002600	-45478.143631	-692.741603
0.0000002700	-45008.561330	-688.746423
0.0000002800	-44521.745815	-684.351838
0.0000002900	-44015.841966	-679.817282
0.0000003000	-43495.728133	-675.330360
0.0000003100	-42962.344630	-670.958767
0.0000003200	-42412.350236	-666.641450
0.0000003300	-41838.509890	-662.220286
0.0000003400	-41244.736112	-657.499829
0.0000003500	-40642.304044	-652.313651
0.0000003600	-40029.588173	-646.574696
0.0000003700	-39398.578044	-640.294063
0.0000003800	-38752.201670	-633.564918
0.0000003900	-38092.892300	-626.520880
0.0000004000	-37418.077275	-619.286465
0.0000004100	-36732.393487	-611.938081
0.0000004200	-36043.075998	-604.487934
0.0000004300	-35349.026400	-596.892976
0.0000004400	-34639.331738	-589.081183
0.0000004500	-33906.076773	-580.981946
0.0000004600	-33149.287017	-572.547959
0.0000004700	-32378.477710	-563.761785
0.0000004800	-31602.567279	-554.628096
0.0000004900	-30818.869168	-545.158853
0.0000005000	-30026.900464	-535.360598
0.0000005100	-29224.863902	-525.230329
0.0000005200	-28408.401411	-514.760801
0.0000005300	-27578.789978	-503.950632
0.0000005400	-26741.314330	-492.811998
0.0000005500	-25897.295649	-481.370177
0.0000005600	-25045.178126	-469.653803
0.0000005700	-24187.362668	-457.679954
0.0000005800	-23324.884808	-445.441430
0.0000005900	-22456.778717	-432.903078
0.0000006000	-21581.463077	-420.010013
0.0000006100	-20692.013987	-406.705019
0.0000006200	-19788.208672	-392.947958
0.0000006300	-18879.740954	-378.728885
0.0000006400	-17960.316087	-364.069264
0.0000006500	-17025.550487	-349.010941
0.0000006600	-16082.221813	-333.597912
0.0000006700	-15135.716838	-317.858914
0.0000006800	-14189.021431	-301.798109
0.0000006900	-13239.010314	-285.397184
0.0000007000	-12285.054333	-268.626872
0.0000007100	-11330.882408	-251.461824
0.0000007200	-10374.982923	-233.891709
0.0000007300	-9415.208279	-215.923774
0.0000007400	-8456.754817	-197.576602
0.0000007500	-7494.388833	-178.869211
0.0000007600	-6518.969125	-159.811843
0.0000007700	-5538.302054	-140.403805
0.0000007800	-4560.976203	-120.640127
0.0000007900	-3582.094545	-100.524316
0.0000008000	-2598.232492	-80.081387
0.0000008100	-1618.956307	-59.364984
0.0000008200	-646.845478	-38.454999
0.0000008300	326.821158	-17.446336
0.0000008400	1306.306458	3.566604
0.0000008500	2284.712033	24.503380
0.0000008600	3264.318061	45.303661
0.0000008700	4244.000625	65.924302
0.0000008800	5220.818050	86.329692
0.0000008900	6200.665535	106.480682
0.0000009000	7173.424199	126.327850
0.0000009100	8142.358727	145.812693
0.0000009200	9110.308748	164.876569
0.0000009300	10070.661522	183.473624
0.0000009400	11026.999727	201.582007
0.0000009500	11982.086456	219.208318
0.0000009600	12934.841983	236.383044
0.0000009700	13885.456742	253.148436
0.0000009800	14836.840065	269.543370
0.0000009900	15788.680789	285.590862
0.0000010000	16738.095094	301.292715
0.0000010100	17680.299851	316.632841
0.0000010200	18608.250429	331.587327
0.0000010300	19523.699901	346.136771
0.0000010400	20427.131180	360.275702
0.0000010500	21311.664559	374.015305
0.0000010600	22185.856282	387.378548
0.0000010700	23055.360089	400.389959
0.0000010800	23919.934525	413.064574
0.0000010900	24780.856578	425.400997
0.0000011000	25636.322153	437.381973
0.0000011100	26487.195029	448.982879
0.0000011200	27327.491623	460.185256
0.0000011300	28154.880732	470.990131
0.0000011400	28971.547318	481.425470
0.0000011500	29777.726007	491.543843
0.0000011600	30574.052783	501.409885
0.0000011700	31357.903964	511.081076
0.0000011800	32135.739219	520.588401
0.0000011900	32905.603191	529.924170
0.0000012000	33655.991133	539.042354
0.0000012100	34395.744939	547.872580
0.0000012200	35127.381222	556.343951
0.0000012300	35838.417557	564.410885
0.0000012400	36532.378768	572.071836
0.0000012500	37221.480313	579.373783
0.0000012600	37901.092131	586.400139
0.0000012700	38564.213785	593.245676
0.0000012800	39215.119983	599.986856
0.0000012900	39852.972456	606.657857
0.0000013000	40473.851853	613.240683
0.0000013100	41081.315340	619.672728
0.0000013200	41682.070872	625.868946
0.0000013300	42270.306617	631.750610
0.0000013400	42838.323280	637.270614
0.0000013500	43385.041137	642.426927
0.0000013600	43910.987294	647.260527
0.0000013700	44420.944884	651.839896
0.0000013800	44914.335775	656.238715
0.0000013900	45395.371800	660.515108
0.0000014000	45860.451600	664.699197
0.0000014100	46304.511412	668.791750
0.0000014200	46738.591753	672.772218
0.0000014300	47165.652977	676.611247
0.0000014400	47582.862288	680.282016
0.0000014500	47980.843857	683.766459
0.0000014600	48355.163077	687.055498
0.0000014700	48715.564791	690.145341
0.0000014800	49058.974748	693.033323
0.0000014900	49377.090012	695.716266
0.0000015000	49674.071391	698.192361
0.0000015100	49954.321151	700.465259
0.0000015200	50219.713091	702.547624
0.0000015300	50470.056778	704.461484
0.0000015400	50695.741756	706.234265
0.0000015500	50890.485129	707.891545
0.0000015600	51064.234028	709.449243
0.0000015700	51226.777490	710.908419
0.0000015800	51373.313703	712.254827
0.0000015900	51498.144731	713.463464
0.0000016000	51599.968075	714.506339
0.0000016100	51683.973244	715.360596
0.0000016200	51760.933784	716.014243
0.0000016300	51823.881604	716.467960
0.0000016400	51867.576169	716.733176
0.0000016500	51884.801100	716.827989
0.0000016600	51877.862086	716.772996
0.0000016700	51857.075272	716.588639
0.0000016800	51820.083946	716.294508
0.0000016900	51772.128639	715.909819
0.0000017000	51715.997956	715.453588
0.0000017100	51646.147032	714.943128
0.0000017200	51556.966318	714.390406
0.0000017300	51456.745089	713.797133
0.0000017400	51346.404979	713.150667
0.0000017500	51208.979742	712.423380
0.0000017600	51040.810164	711.577660
0.0000017700	50838.262544	710.577217
0.0000017800	50605.198378	709.403027
0.0000017900	50365.393916	708.069803
0.0000018000	50118.723407	706.637163
0.0000018100	49855.054311	705.209548
0.0000018200	49590.463580	703.920990
0.0000018300	49312.737569	702.904942
0.0000018400	48989.123749	702.254668
0.0000018500	48647.557363	701.984414
0.0000018600	48297.994184	702.003947
0.0000018700	47918.740877	702.117404
0.0000018800	47533.852509	702.051624
0.0000018900	47141.640694	701.510281
0.0000019000	46730.505467	700.241116
0.0000019100	46303.432696	698.097441
0.0000019200	45859.386849	695.074789
0.0000019300	45401.449008	691.309736
0.0000019400	44912.093481	687.039256
0.0000019500	44403.833223	682.531751
0.0000019600	43884.374359	678.010589
0.0000019700	43347.554722	673.593981
0.0000019800	42801.600712	669.269779
0.0000019900	42233.751084	664.912010
0.0000020000	41647.816313	660.331812
0.0000020100	41046.858801	655.344011
0.0000020200	40430.992445	649.826164
0.0000020300	39808.824513	643.750882
0.0000020400	39175.121301	637.182972
0.0000020500	38525.315623	630.246070
0.0000020600	37854.262163	623.073872
0.0000020700	37161.420153	615.765038
0.0000020800	36454.558591	608.357237
0.0000020900	35741.783149	600.826691
0.0000021000	35022.376288	593.109047
0.0000021100	34286.599992	585.129827
0.0000021200	33535.215995	576.830879
0.0000021300	32779.575972	568.183272
0.0000021400	32015.094057	559.184576
0.0000021500	31232.654557	549.845716
0.0000021600	30440.711669	540.176412
0.0000021700	29644.995669	530.177250
0.0000021800	28843.175356	519.841561
0.0000021900	28029.025688	509.164447
0.0000022000	27194.587235	498.152276
0.0000022100	26343.270921	486.825867
0.0000022200	25476.639387	475.214172
0.0000022300	24597.550939	463.340624
0.0000022400	23713.679359	451.208619
0.0000022500	22827.762228	438.793663
0.0000022600	21937.424150	426.046933
0.0000022700	21041.241897	412.909734
0.0000022800	20147.771712	399.333135
0.0000022900	19249.576250	385.294458
0.0000023000	18336.859642	370.803524
0.0000023100	17414.760373	355.896108
0.0000023200	16487.109409	340.617674
0.0000023300	15556.237952	325.004639
0.0000023400	14618.321867	309.071215
0.0000023500	13671.201704	292.806961
0.0000023600	12719.851028	276.185161
0.0000023700	11763.684878	259.177251
0.0000023800	10804.850853	241.766161
0.0000023900	9841.862850	223.952541
0.0000024000	8871.925436	205.751697
0.0000024100	7900.158415	187.183811
0.0000024200	6927.165429	168.263307
0.0000024300	5953.835769	148.993468
0.0000024400	4980.506110	129.369713
0.0000024500	4006.623832	109.390532
0.0000024600	3031.731534	89.071196
0.0000024700	2057.391855	68.453824
0.0000024800	1084.062195	47.608912
0.0000024900	110.732536	26.627218
0.0000025000	-862.597124	5.605198
0.0000025100	-1835.926783	-15.370000
0.0000025200	-2809.256443	-36.229999
0.0000025300	-3784.148740	-56.925779
0.0000025400	-4758.583637	-77.420146
0.0000025500	-5731.913296	-97.676499
0.0000025600	-6705.700357	-117.649788
0.0000025700	-7678.934800	-137.284390
0.0000025800	-8650.149203	-156.520279
0.0000025900	-9618.575003	-175.305014
0.0000026000	-10582.338399	-193.606321
0.0000026100	-11544.539157	-211.419660
0.0000026200	-12503.544934	-228.767238
0.0000026300	-13452.139349	-245.688446
0.0000026400	-14393.638113	-262.225246
0.0000026500	-15331.872190	-278.407988
0.0000026600	-16266.765046	-294.246886
0.0000026700	-17197.903471	-309.731973
0.0000026800	-18127.168097	-324.840949
0.0000026900	-19049.896519	-339.551245
0.0000027000	-19964.233620	-353.851168
0.0000027100	-20869.220403	-367.745536
0.0000027200	-21763.122478	-381.253696
0.0000027300	-22652.863745	-394.400951
0.0000027400	-23539.194085	-407.207220
0.0000027500	-24420.569541	-419.677956
0.0000027600	-25296.514032	-431.801529
0.0000027700	-26161.164699	-443.554779
0.0000027800	-27010.042744	-454.915092
0.0000027900	-27842.837003	-465.874509
0.0000028000	-28659.020372	-476.450099
0.0000028100	-29463.731335	-486.685734
0.0000028200	-30264.643676	-496.643352
0.0000028300	-31060.220266	-506.385711
0.0000028400	-31842.000080	-515.956207
0.0000028500	-32607.963078	-525.363073
0.0000028600	-33367.935661	-534.574398
0.0000028700	-34116.925583	-543.526934
0.0000028800	-34848.389810	-552.146816
0.0000028900	-35568.286415	-560.375695
0.0000029000	-36278.064140	-568.193289
0.0000029100	-36982.143929	-575.628054
0.0000029200	-37670.311685	-582.751508
0.0000029300	-38332.880418	-589.657469
0.0000029400	-38976.525739	-596.432991
0.0000029500	-39606.005268	-603.130962
0.0000029600	-40225.772294	-609.753952
0.0000029700	-40839.650952	-616.254909
0.0000029800	-41443.290000	-622.554319
0.0000029900	-42028.996975	-628.567543
0.0000030000	-42594.104003	-634.232650
0.0000030100	-43140.719509	-639.529273
0.0000030200	-43678.892670	-644.482708
0.0000030300	-44207.429864	-649.153100
0.0000030400	-44716.644098	-653.614828
0.0000030500	-45198.956808	-657.934185
0.0000030600	-45659.817641	-662.153078
0.0000030700	-46110.146384	-666.283281
0.0000030800	-46552.471502	-670.311246
0.0000030900	-46981.025356	-674.209545
0.0000031000	-47391.812059	-677.949282
0.0000031100	-47786.419761	-681.508611
0.0000031200	-48162.422042	-684.875217
0.0000031300	-48526.373789	-688.043784
0.0000031400	-48883.331931	-691.011586
0.0000031500	-49215.752093	-693.775612
0.0000031600	-49511.825195	-696.333096
0.0000031700	-49787.119768	-698.685023
0.0000031800	-50047.893194	-700.840251
0.0000031900	-50288.955964	-702.817362
0.0000032000	-50513.572764	-704.642393
0.0000032100	-50721.000543	-706.342619
0.0000032200	-50912.966861	-707.938585
0.0000032300	-51092.025693	-709.437531
0.0000032400	-51250.630819	-710.830938
0.0000032500	-51380.918022	-712.097225
0.0000032600	-51488.121004	-713.208556
0.0000032700	-51585.319004	-714.139191
0.0000032800	-51669.730247	-714.872423
0.0000032900	-51732.677763	-715.404000
0.0000033000	-51776.581139	-715.741541
0.0000033100	-51804.159273	-715.901062
0.0000033200	-51817.388014	-715.902601
