Tiempo_(s)	Campo_(A/m)	Magnetizacion_(A/m)
0.0000000000	-51757.255877	-603.024487
0.0000000100	-51741.185460	-603.474207
0.0000000200	-51705.963155	-603.708347
0.0000000300	-51659.309669	-603.652869
0.0000000400	-51598.749167	-603.285288
0.0000000500	-51521.836792	-602.641394
0.0000000600	-51430.046786	-601.811055
0.0000000700	-51318.142760	-600.923639
0.0000000800	-51183.060674	-600.125638
0.0000000900	-51019.285076	-599.554525
0.0000001000	-50823.642923	-599.313670
0.0000001100	-50606.925518	-599.453010
0.0000001200	-50376.389405	-599.959118
0.0000001300	-50134.780098	-600.756679
0.0000001400	-49886.472374	-601.721231
0.0000001500	-49627.800876	-602.700995
0.0000001600	-49342.517078	-603.543918
0.0000001700	-49038.054142	-604.125059
0.0000001800	-48720.027138	-604.369371
0.0000001900	-48385.423700	-604.265724
0.0000002000	-48039.880495	-603.869598
0.0000002100	-47675.285020	-603.293904
0.0000002200	-47291.446522	-602.689535
0.0000002300	-46892.090513	-602.219094
0.0000002400	-46477.301574	-602.028445
0.0000002500	-46046.561041	-602.221109
0.0000002600	-45598.591983	-602.839988
0.0000002700	-45137.019396	-603.859525
0.0000002800	-44657.708104	-605.189561
0.0000002900	-44157.800761	-606.689995
0.0000003000	-43641.144097	-608.193506
0.0000003100	-43108.190062	-609.532187
0.0000003200	-42561.842019	-610.563350
0.0000003300	-41998.392323	-611.190039
0.0000003400	-41413.075302	-611.372874
0.0000003500	-40810.105057	-611.131501
0.0000003600	-40195.042157	-610.535878
0.0000003700	-39566.931026	-609.689469
0.0000003800	-38924.115151	-608.707796
0.0000003900	-38263.278680	-607.696553
0.0000004000	-37585.650597	-606.733342
0.0000004100	-36900.874973	-605.856261
0.0000004200	-36205.717707	-605.061099
0.0000004300	-35496.426036	-604.307144
0.0000004400	-34774.137808	-603.529937
0.0000004500	-34043.148873	-602.657971
0.0000004600	-33301.580986	-601.629670
0.0000004700	-32542.271566	-600.407041
0.0000004800	-31770.666525	-598.983202
0.0000004900	-30991.304143	-597.382341
0.0000005000	-30201.110995	-595.652279
0.0000005100	-29395.506513	-593.851396
0.0000005200	-28579.517561	-592.032858
0.0000005300	-27758.622958	-590.229662
0.0000005400	-26929.482428	-588.443844
0.0000005500	-26085.940640	-586.642330
0.0000005600	-25227.970345	-584.760493
0.0000005700	-24361.620696	-582.712815
0.0000005800	-23486.424704	-580.408531
0.0000005900	-22603.523045	-577.768933
0.0000006000	-21716.125395	-574.742576
0.0000006100	-20820.575781	-571.314908
0.0000006200	-19909.699413	-567.509876
0.0000006300	-18985.796409	-563.382671
0.0000006400	-18060.088427	-559.004564
0.0000006500	-17130.205808	-554.442495
0.0000006600	-16192.644772	-549.737294
0.0000006700	-15251.264258	-544.884844
0.0000006800	-14304.832456	-539.824127
0.0000006900	-13352.445462	-534.434807
0.0000007000	-12395.562478	-528.545189
0.0000007100	-11435.709417	-521.949262
0.0000007200	-10473.468830	-514.429578
0.0000007300	-9509.186492	-505.781329
0.0000007400	-8542.756228	-495.832462
0.0000007500	-7576.790127	-484.455199
0.0000007600	-6607.629388	-471.565860
0.0000007700	-5632.076546	-457.112155
0.0000007800	-4654.903825	-441.049811
0.0000007900	-3676.763317	-423.312859
0.0000008000	-2698.185897	-403.783860
0.0000008100	-1719.793576	-382.271137
0.0000008200	-740.818706	-358.499652
0.0000008300	239.588114	-332.120376
0.0000008400	1221.269037	-302.740160
0.0000008500	2202.591971	-269.970550
0.0000008600	3183.171680	-233.490438
0.0000008700	4163.605751	-193.114354
0.0000008800	5144.491774	-148.856288
0.0000008900	6122.938596	-100.978566
0.0000009000	7097.526479	-50.016553
0.0000009100	8070.230460	3.227092
0.0000009200	9039.275640	57.720878
0.0000009300	10002.671943	112.273189
0.0000009400	10963.334942	165.624296
0.0000009500	11923.494317	216.550999
0.0000009600	12882.394629	263.971059
0.0000009700	13837.278153	307.034216
0.0000009800	14784.895749	345.188173
0.0000009900	15723.151165	378.211304
0.0000010000	16657.465889	406.208368
0.0000010100	17589.872289	429.570679
0.0000010200	18515.437462	448.907017
0.0000010300	19436.822341	464.955471
0.0000010400	20352.642924	478.488718
0.0000010500	21255.509238	490.225594
0.0000010600	22146.941544	500.760355
0.0000010700	23031.344695	510.517768
0.0000010800	23909.807693	519.737957
0.0000010900	24781.283827	528.490214
0.0000011000	25645.242221	536.710698
0.0000011100	26495.915611	544.255628
0.0000011200	27329.096452	550.959843
0.0000011300	28152.077924	556.690524
0.0000011400	28966.758968	561.387514
0.0000011500	29772.105082	565.084592
0.0000011600	30567.427543	567.909726
0.0000011700	31352.498960	570.066130
0.0000011800	32129.837459	571.799166
0.0000011900	32897.446407	573.356294
0.0000012000	33647.884161	574.948034
0.0000012100	34382.989503	576.717231
0.0000012200	35111.490392	578.721937
0.0000012300	35828.590178	580.934433
0.0000012400	36528.597694	583.255815
0.0000012500	37217.289587	585.542668
0.0000012600	37900.544952	587.640326
0.0000012700	38570.399755	589.416190
0.0000012800	39220.256096	590.786879
0.0000012900	39855.617216	591.734409
0.0000013000	40477.374806	592.308812
0.0000013100	41083.244687	592.617319
0.0000013200	41676.172511	592.802690
0.0000013300	42253.321629	593.015293
0.0000013400	42810.302226	593.384500
0.0000013500	43352.217263	593.994946
0.0000013600	43879.691581	594.872072
0.0000013700	44391.903029	595.979460
0.0000013800	44891.688257	597.228146
0.0000013900	45374.092768	598.495792
0.0000014000	45836.407681	599.651769
0.0000014100	46281.190584	600.583161
0.0000014200	46709.861217	601.216648
0.0000014300	47125.177304	601.532145
0.0000014400	47526.756435	601.565745
0.0000014500	47910.806383	601.401633
0.0000014600	48275.816275	601.154778
0.0000014700	48622.338580	600.947960
0.0000014800	48951.501763	600.887716
0.0000014900	49268.120339	601.043920
0.0000015000	49570.458873	601.436942
0.0000015100	49852.285936	602.034765
0.0000015200	50113.280176	602.760508
0.0000015300	50354.633943	603.508720
0.0000015400	50580.776513	604.167151
0.0000015500	50792.135415	604.639631
0.0000015600	50986.201908	604.865538
0.0000015700	51163.652505	604.832006
0.0000015800	51322.023582	604.576480
0.0000015900	51459.722513	604.179136
0.0000016000	51575.275056	603.746664
0.0000016100	51671.466189	603.390615
0.0000016200	51749.888538	603.204590
0.0000016300	51809.401429	603.244799
0.0000016400	51853.994397	603.517870
0.0000016500	51880.423960	603.978410
0.0000016600	51884.801100	604.536937
0.0000016700	51872.374416	605.076785
0.0000016800	51845.892251	605.476819
0.0000016900	51803.947077	605.635654
0.0000017000	51748.504548	605.492694
0.0000017100	51676.540087	605.041886
0.0000017200	51586.048577	604.335382
0.0000017300	51482.800111	603.476225
0.0000017400	51365.735764	602.601213
0.0000017500	51230.957135	601.856972
0.0000017600	51070.442860	601.373624
0.0000017700	50876.951432	601.240889
0.0000017800	50655.197749	601.491135
0.0000017900	50417.235003	602.092589
0.0000018000	50167.764980	602.954138
0.0000018100	49899.743484	603.940975
0.0000018200	49618.576966	604.898374
0.0000018300	49328.821573	605.679345
0.0000018400	49019.216183	606.171193
0.0000018500	48696.942145	606.316168
0.0000018600	48362.274794	606.122423
0.0000018700	48002.254206	605.663280
0.0000018800	47626.701068	605.064863
0.0000018900	47239.121988	604.484282
0.0000019000	46835.922051	604.082226
0.0000019100	46417.010120	603.994831
0.0000019200	45981.175979	604.309749
0.0000019300	45528.965543	605.050616
0.0000019400	45058.352100	606.172519
0.0000019500	44572.181685	607.569114
0.0000019600	44070.296449	609.089946
0.0000019700	43553.891569	610.564758
0.0000019800	43022.663558	611.830368
0.0000019900	42472.313738	612.755389
0.0000020000	41905.214596	613.258545
0.0000020100	41321.672446	613.317639
0.0000020200	40723.741250	612.967987
0.0000020300	40111.305449	612.291114
0.0000020400	39478.158039	611.396216
0.0000020500	38828.206806	610.398154
0.0000020600	38165.325728	609.396209
0.0000020700	37489.754407	608.457504
0.0000020800	36802.102642	607.607942
0.0000020900	36104.266547	606.831943
0.0000021000	35396.510145	606.080470
0.0000021100	34675.271428	605.285264
0.0000021200	33939.048904	604.376005
0.0000021300	33190.782571	603.296687
0.0000021400	32432.610971	602.017755
0.0000021500	31663.168866	600.541549
0.0000021600	30881.433968	598.900061
0.0000021700	30090.546412	597.145643
0.0000021800	29291.203406	595.336826
0.0000021900	28473.230005	593.522416
0.0000022000	27641.686880	591.727409
0.0000022100	26805.966291	589.943904
0.0000022200	25962.570112	588.129113
0.0000022300	25108.021815	586.211080
0.0000022400	24243.977913	584.101052
0.0000022500	23371.208881	581.709962
0.0000022600	22491.371233	578.965526
0.0000022700	21602.450468	575.826174
0.0000022800	20705.493299	572.288577
0.0000022900	19798.673153	568.386728
0.0000023000	18877.199937	564.182253
0.0000023100	17949.450176	559.747407
0.0000023200	17020.732627	555.143845
0.0000023300	16088.037752	550.401241
0.0000023400	15150.940850	545.500061
0.0000023500	14207.837083	540.362129
0.0000023600	13258.235037	534.851183
0.0000023700	12304.880227	528.783652
0.0000023800	11345.451839	521.947777
0.0000023900	10381.448536	514.127342
0.0000024000	9415.761469	505.125142
0.0000024100	8447.820302	494.781070
0.0000024200	7476.417645	482.980520
0.0000024300	6502.773099	469.650600
0.0000024400	5528.810027	454.744077
0.0000024500	4554.807493	438.213640
0.0000024600	3579.664284	419.981481
0.0000024700	2604.096373	399.910791
0.0000024800	1629.669139	377.786268
0.0000024900	655.335868	353.309890
0.0000025000	-320.271505	326.116084
0.0000025100	-1295.906128	295.807331
0.0000025200	-2270.691350	262.007605
0.0000025300	-3245.079122	224.427579
0.0000025400	-4219.042194	182.932720
0.0000025500	-5192.104191	137.603888
0.0000025600	-6164.422962	88.780144
0.0000025700	-7137.642808	37.075237
0.0000025800	-8110.850442	-16.637460
0.0000025900	-9080.811765	-71.272509
0.0000026000	-10042.697221	-125.608667
0.0000026100	-11001.212323	-178.385721
0.0000026200	-11958.692925	-228.410435
0.0000026300	-12911.295125	-274.658463
0.0000026400	-13860.356912	-316.359278
0.0000026500	-14805.957208	-353.053317
0.0000026600	-15744.649565	-384.614268
0.0000026700	-16676.115456	-411.234263
0.0000026800	-17603.230995	-433.374852
0.0000026900	-18527.188529	-451.691286
0.0000027000	-19446.971427	-466.941165
0.0000027100	-20351.324222	-479.890221
0.0000027200	-21239.801519	-491.227906
0.0000027300	-22122.572609	-501.503364
0.0000027400	-23000.665437	-511.088834
0.0000027500	-23869.635686	-520.173046
0.0000027600	-24730.011404	-528.782552
0.0000027700	-25583.876632	-536.824810
0.0000027800	-26429.122907	-544.143986
0.0000027900	-27268.016539	-550.579122
0.0000028000	-28100.654322	-556.014802
0.0000028100	-28917.379972	-560.416454
0.0000028200	-29717.395763	-563.845645
0.0000028300	-30509.454073	-566.454514
0.0000028400	-31294.643906	-568.462144
0.0000028500	-32068.936261	-570.118689
0.0000028600	-32828.508833	-571.664798
0.0000028700	-33576.210484	-573.294276
0.0000028800	-34317.098159	-575.126802
0.0000028900	-35042.182704	-577.195303
0.0000029000	-35748.870799	-579.449619
0.0000029100	-36447.455776	-581.775001
0.0000029200	-37137.688651	-584.021300
0.0000029300	-37814.621482	-586.036915
0.0000029400	-38477.762856	-587.700945
0.0000029500	-39130.534800	-588.947611
0.0000029600	-39770.061202	-589.778706
0.0000029700	-40389.391832	-590.262253
0.0000029800	-40990.037564	-590.518216
0.0000029900	-41577.383252	-590.694518
0.0000030000	-42147.478821	-590.938331
0.0000030100	-42697.324117	-591.368330
0.0000030200	-43234.543053	-592.053226
0.0000030300	-43759.472024	-593.000516
0.0000030400	-44267.851811	-594.157331
0.0000030500	-44761.417852	-595.422868
0.0000030600	-45241.101300	-596.669724
0.0000030700	-45707.803229	-597.769768
0.0000030800	-46157.864840	-598.619458
0.0000030900	-46589.147589	-599.159731
0.0000031000	-47006.426531	-599.386749
0.0000031100	-47408.524355	-599.351624
0.0000031200	-47793.369231	-599.149429
0.0000031300	-48160.885065	-598.899848
0.0000031400	-48507.182837	-598.723399
0.0000031500	-48837.817460	-598.717961
0.0000031600	-49154.478356	-598.940167
0.0000031700	-49450.637164	-599.395248
0.0000031800	-49732.261289	-600.037172
0.0000031900	-49996.304559	-600.778918
0.0000032000	-50240.522255	-601.510736
0.0000032100	-50469.571044	-602.122702
0.0000032200	-50678.994399	-602.527072
0.0000032300	-50870.515545	-602.676016
0.0000032400	-51040.821457	-602.571232
0.0000032500	-51189.696957	-602.263570
0.0000032600	-51322.062736	-601.842747
0.0000032700	-51437.029931	-601.419187
0.0000032800	-51537.489693	-601.101575
0.0000032900	-51619.042824	-600.974559
0.0000033000	-51679.326219	-601.081034
0.0000033100	-51721.771291	-601.412551
0.0000033200	-51746.938992	-601.909879
0.0000033300	-51757.016711	-602.473716
