Tiempo_(s)	Campo_(A/m)	Magnetizacion_(A/m)
0.0000000000	-20831.420484	-765.836100
0.0000000100	-20830.578619	-765.977640
0.0000000200	-20829.421096	-766.080078
0.0000000300	-20828.263572	-766.143354
0.0000000400	-20824.841774	-766.167415
0.0000000500	-20819.406111	-766.152223
0.0000000600	-20812.021832	-766.097744
0.0000000700	-20799.412436	-766.003956
0.0000000800	-20784.397682	-765.870847
0.0000000900	-20772.093359	-765.698410
0.0000001000	-20754.824916	-765.486652
0.0000001100	-20742.118512	-765.235584
0.0000001200	-20730.641254	-764.945227
0.0000001300	-20711.293697	-764.615611
0.0000001400	-20691.184324	-764.246770
0.0000001500	-20669.180998	-763.838750
0.0000001600	-20646.241282	-763.391599
0.0000001700	-20622.278754	-762.905375
0.0000001800	-20595.877376	-762.380140
0.0000001900	-20567.386298	-761.815961
0.0000002000	-20540.528178	-761.212911
0.0000002100	-20512.548506	-760.571067
0.0000002200	-20481.227084	-759.890510
0.0000002300	-20446.258841	-759.171324
0.0000002400	-20411.900743	-758.413595
0.0000002500	-20377.748978	-757.617413
0.0000002600	-20344.087446	-756.782866
0.0000002700	-20307.551495	-755.910046
0.0000002800	-20267.663208	-754.999043
0.0000002900	-20223.681942	-754.049949
0.0000003000	-20179.254519	-753.062852
0.0000003100	-20133.705545	-752.037839
0.0000003200	-20086.698188	-750.974996
0.0000003300	-20039.124763	-749.874402
0.0000003400	-19990.168790	-748.736136
0.0000003500	-19940.461588	-747.560270
0.0000003600	-19888.414276	-746.346872
0.0000003700	-19834.984416	-745.096002
0.0000003800	-19780.041511	-743.807714
0.0000003900	-19725.098607	-742.482057
0.0000004000	-19670.220951	-741.119067
0.0000004100	-19613.710338	-739.718776
0.0000004200	-19553.291907	-738.281203
0.0000004300	-19492.492568	-736.806359
0.0000004400	-19428.677725	-735.294242
0.0000004500	-19360.519493	-733.744842
0.0000004600	-19290.151650	-732.158134
0.0000004700	-19221.155767	-730.534081
0.0000004800	-19148.654146	-728.872634
0.0000004900	-19072.865438	-727.173728
0.0000005000	-18998.208868	-725.437288
0.0000005100	-18924.499275	-723.663219
0.0000005200	-18847.643679	-721.851415
0.0000005300	-18768.077652	-720.001751
0.0000005400	-18687.564648	-718.114090
0.0000005500	-18607.617712	-716.188276
0.0000005600	-18525.667498	-714.224135
0.0000005700	-18441.061515	-712.221479
0.0000005800	-18356.705942	-710.180100
0.0000005900	-18269.084455	-708.099775
0.0000006000	-18178.121218	-705.980261
0.0000006100	-18087.027483	-703.821299
0.0000006200	-17994.681699	-701.622609
0.0000006300	-17899.494986	-699.383897
0.0000006400	-17805.560321	-697.104846
0.0000006500	-17711.886652	-694.785125
0.0000006600	-17616.329617	-692.424382
0.0000006700	-17518.062150	-690.022249
0.0000006800	-17416.768592	-687.578338
0.0000006900	-17314.212399	-685.092244
0.0000007000	-17212.472684	-682.563545
0.0000007100	-17109.546170	-679.991801
0.0000007200	-17005.226521	-677.376555
0.0000007300	-16900.090395	-674.717333
0.0000007400	-16794.072540	-672.013645
0.0000007500	-16686.606890	-669.264985
0.0000007600	-16578.760331	-666.470831
0.0000007700	-16470.848524	-663.630646
0.0000007800	-16363.001965	-660.743881
0.0000007900	-16253.772859	-657.809968
0.0000008000	-16142.910797	-654.828331
0.0000008100	-16030.405190	-651.798380
0.0000008200	-15915.820470	-648.719510
0.0000008300	-15800.734930	-645.591110
0.0000008400	-15685.018073	-642.412555
0.0000008500	-15568.419488	-639.183211
0.0000008600	-15451.124336	-635.902438
0.0000008700	-15334.460502	-632.569586
0.0000008800	-15217.230599	-629.183999
0.0000008900	-15096.985192	-625.745014
0.0000009000	-14975.346651	-622.251965
0.0000009100	-14854.459340	-618.704182
0.0000009200	-14732.004321	-615.100992
0.0000009300	-14608.166754	-611.441721
0.0000009400	-14483.883031	-607.725692
0.0000009500	-14358.401921	-603.952233
0.0000009600	-14230.351464	-600.120671
0.0000009700	-14099.579989	-596.230337
0.0000009800	-13968.993674	-592.280565
0.0000009900	-13839.419586	-588.270696
0.0000010000	-13708.648111	-584.200078
0.0000010100	-13578.192294	-580.068065
0.0000010200	-13446.604341	-575.874023
0.0000010300	-13312.316542	-571.617327
0.0000010400	-13176.319950	-567.297363
0.0000010500	-13040.192860	-562.913532
0.0000010600	-12903.379790	-558.465248
0.0000010700	-12761.156443	-553.951942
0.0000010800	-12616.908645	-549.373061
0.0000010900	-12473.792984	-544.728070
0.0000011000	-12327.977477	-540.016455
0.0000011100	-12181.955637	-535.237722
0.0000011200	-12037.642590	-530.391399
0.0000011300	-11890.694946	-525.477038
0.0000011400	-11741.722851	-520.494216
0.0000011500	-11592.435097	-515.442534
0.0000011600	-11443.713412	-510.321622
0.0000011700	-11295.307385	-505.131138
0.0000011800	-11145.333651	-499.870770
0.0000011900	-10994.282442	-494.540235
0.0000012000	-10844.232872	-489.139283
0.0000012100	-10694.063390	-483.667696
0.0000012200	-10542.075791	-478.125292
0.0000012300	-10389.010717	-472.511922
0.0000012400	-10236.566374	-466.827473
0.0000012500	-10082.815320	-461.071871
0.0000012600	-9926.103424	-455.245077
0.0000012700	-9768.248804	-449.347092
0.0000012800	-9611.025502	-443.377959
0.0000012900	-9452.985721	-437.337758
0.0000013000	-9293.182486	-431.226611
0.0000013100	-9134.130479	-425.044683
0.0000013200	-8975.143722	-418.792182
0.0000013300	-8814.458759	-412.469358
0.0000013400	-8653.708547	-406.076504
0.0000013500	-8493.589652	-399.613960
0.0000013600	-8332.839440	-393.082109
0.0000013700	-8172.339637	-386.481379
0.0000013800	-8012.471153	-379.812244
0.0000013900	-7851.720940	-373.075225
0.0000014000	-7689.969089	-366.270888
0.0000014100	-7527.335510	-359.399845
0.0000014200	-7364.060026	-352.462755
0.0000014300	-7200.915041	-345.460324
0.0000014400	-7036.703168	-338.393304
0.0000014500	-6873.492933	-331.262495
0.0000014600	-6709.161148	-324.068740
0.0000014700	-6541.052043	-316.812931
0.0000014800	-6371.734965	-309.496007
0.0000014900	-6203.615273	-302.118951
0.0000015000	-6036.126899	-294.682791
0.0000015100	-5866.875070	-287.188601
0.0000015200	-5696.741513	-279.637500
0.0000015300	-5527.174025	-272.030651
0.0000015400	-5356.604898	-264.369260
0.0000015500	-5184.642637	-256.654576
0.0000015600	-5014.879402	-248.887891
0.0000015700	-4846.824960	-241.070537
0.0000015800	-4677.573131	-233.203887
0.0000015900	-4507.123915	-225.289356
0.0000016000	-4336.674700	-217.328396
0.0000016100	-4165.409006	-209.322496
0.0000016200	-3994.078063	-201.273184
0.0000016300	-3823.563598	-193.182023
0.0000016400	-3653.114383	-185.050610
0.0000016500	-3481.663528	-176.880578
0.0000016600	-3308.884789	-168.673589
0.0000016700	-3136.541620	-160.431340
0.0000016800	-2964.013290	-152.155553
0.0000016900	-2791.049390	-143.847983
0.0000017000	-2618.020241	-135.510410
0.0000017100	-2443.347549	-127.144640
0.0000017200	-2270.187901	-118.752503
0.0000017300	-2098.791709	-110.335851
0.0000017400	-1927.460766	-101.896561
0.0000017500	-1756.761141	-93.436524
0.0000017600	-1582.730352	-84.957653
0.0000017700	-1407.241181	-76.461877
0.0000017800	-1232.698987	-67.951139
0.0000017900	-1057.906383	-59.427395
0.0000018000	-884.616237	-50.892613
0.0000018100	-711.837498	-42.348772
0.0000018200	-538.677851	-33.797856
0.0000018300	-366.149521	-25.241859
0.0000018400	-193.436031	-16.682778
0.0000018500	-17.826948	-8.122612
0.0000018600	157.411813	0.436636
0.0000018700	330.821870	8.992967
0.0000018800	504.732747	17.544382
0.0000018900	678.523712	26.088886
0.0000019000	851.052041	34.624491
0.0000019100	1023.014302	43.149215
0.0000019200	1195.226972	51.661087
0.0000019300	1367.875214	60.158146
0.0000019400	1541.851339	68.638442
0.0000019500	1716.458783	77.100042
0.0000019600	1890.184499	85.541027
0.0000019700	2061.645940	93.959497
0.0000019800	2233.347205	102.353570
0.0000019900	2406.441603	110.721387
0.0000020000	2578.283952	119.061107
0.0000020100	2749.734807	127.370918
0.0000020200	2921.947477	135.649031
0.0000020300	3093.158509	143.893682
0.0000020400	3264.424203	152.103139
0.0000020500	3436.756785	160.275697
0.0000020600	3609.034705	168.409684
0.0000020700	3781.628283	176.503459
0.0000020800	3953.840954	184.555415
0.0000020900	4124.671077	192.563980
0.0000021000	4295.370702	200.527618
0.0000021100	4466.701646	208.444830
0.0000021200	4638.348247	216.314157
0.0000021300	4809.679190	224.134176
0.0000021400	4979.311927	231.903508
0.0000021500	5147.997688	239.620811
0.0000021600	5317.249517	247.284791
0.0000021700	5486.817005	254.894190
0.0000021800	5656.950561	262.447799
0.0000021900	5827.399777	269.944452
0.0000022000	5997.032514	277.383026
0.0000022100	6165.467864	284.762447
0.0000022200	6333.021487	292.081684
0.0000022300	6499.377724	299.339754
0.0000022400	6665.668711	306.535722
0.0000022500	6832.841427	313.668699
0.0000022600	6999.197663	320.737844
0.0000022700	7163.986192	327.742364
0.0000022800	7327.261675	334.681514
0.0000022900	7490.776982	341.554598
0.0000023000	7656.251491	348.360966
0.0000023100	7820.473950	355.100018
0.0000023200	7980.538182	361.771202
0.0000023300	8140.210920	368.374014
0.0000023400	8301.962771	374.907998
0.0000023500	8463.910370	381.372743
0.0000023600	8625.542310	387.767889
0.0000023700	8785.606542	394.093119
0.0000023800	8943.591660	400.348167
0.0000023900	9101.381031	406.532809
0.0000024000	9258.789493	412.646867
0.0000024100	9415.261566	418.690209
0.0000024200	9571.417980	424.662748
0.0000024300	9727.443895	430.564437
0.0000024400	9882.337673	436.395276
0.0000024500	10034.716767	442.155302
0.0000024600	10186.399294	447.844599
0.0000024700	10337.200093	453.463285
0.0000024800	10487.554736	459.011523
0.0000024900	10638.605945	464.489510
0.0000025000	10788.655514	469.897482
0.0000025100	10937.943268	475.235712
0.0000025200	11087.231022	480.504507
0.0000025300	11236.518776	485.704209
0.0000025400	11385.806530	490.835191
0.0000025500	11535.094284	495.897860
0.0000025600	11683.815970	500.892653
0.0000025700	11832.221996	505.820036
0.0000025800	11980.192452	510.680502
0.0000025900	12127.466341	515.474572
0.0000026000	12272.726365	520.202793
0.0000026100	12416.157685	524.865735
0.0000026200	12561.472372	529.463992
0.0000026300	12705.545596	533.998177
0.0000026400	12845.896162	538.468926
0.0000026500	12984.157028	542.876893
0.0000026600	13120.850187	547.222747
0.0000026700	13258.109414	551.507177
0.0000026800	13394.552162	555.730884
0.0000026900	13528.349728	559.894583
0.0000027000	13661.080405	563.999000
0.0000027100	13792.047628	568.044872
0.0000027200	13921.055648	572.032946
0.0000027300	14050.314077	575.963977
0.0000027400	14177.623891	579.838724
0.0000027500	14303.050338	583.657953
0.0000027600	14428.215789	587.422433
0.0000027700	14552.935083	591.132937
0.0000027800	14677.730213	594.790237
0.0000027900	14799.629749	598.395106
0.0000028000	14919.123927	601.948315
0.0000028100	15039.314672	605.450635
0.0000028200	15158.503777	608.902829
0.0000028300	15276.931066	612.305658
0.0000028400	15395.989673	615.659877
0.0000028500	15512.718756	618.966232
0.0000028600	15628.751273	622.225462
0.0000028700	15746.296834	625.438297
0.0000028800	15862.590347	628.605456
0.0000028900	15975.607359	631.727647
0.0000029000	16086.599920	634.805566
0.0000029100	16196.906500	637.839895
0.0000029200	16307.332992	640.831303
0.0000029300	16417.509075	643.780444
0.0000029400	16526.182698	646.687956
0.0000029500	16633.212778	649.554461
0.0000029600	16739.295882	652.380564
0.0000029700	16845.945054	655.166854
0.0000029800	16952.909885	657.913898
0.0000029900	17056.608801	660.622248
0.0000030000	17158.163355	663.292435
0.0000030100	17260.403890	665.924969
0.0000030200	17358.681943	668.520344
0.0000030300	17456.383341	671.079028
0.0000030400	17554.410985	673.601472
0.0000030500	17648.726557	676.088104
0.0000030600	17742.585387	678.539332
0.0000030700	17836.639963	680.955541
0.0000030800	17929.562402	683.337096
0.0000030900	18021.352704	685.684338
0.0000031000	18113.894235	687.997587
0.0000031100	18206.751425	690.277141
0.0000031200	18295.907130	692.523278
0.0000031300	18380.273289	694.736251
0.0000031400	18462.484500	696.916293
0.0000031500	18545.632100	699.063616
0.0000031600	18629.301693	701.178409
0.0000031700	18709.444375	703.260841
0.0000031800	18787.562607	705.311061
0.0000031900	18865.876585	707.329196
0.0000032000	18942.361859	709.315353
0.0000032100	19016.702770	711.269620
0.0000032200	19090.292452	713.192065
0.0000032300	19163.185567	715.082736
0.0000032400	19235.196954	716.941666
0.0000032500	19305.074565	718.768867
0.0000032600	19371.174855	720.564335
0.0000032700	19436.818402	722.328048
0.0000032800	19503.343677	724.059968
0.0000032900	19568.812650	725.760043
0.0000033000	19632.888489	727.428205
0.0000033100	19693.948824	729.064371
0.0000033200	19752.102980	730.668445
0.0000033300	19809.941478	732.240317
0.0000033400	19867.660063	733.779868
0.0000033500	19922.363144	735.286964
0.0000033600	19971.906358	736.761461
0.0000033700	20017.215509	738.203206
0.0000033800	20061.512434	739.612036
0.0000033900	20105.874608	740.987780
0.0000034000	20149.169893	742.330258
0.0000034100	20191.768612	743.639283
0.0000034200	20234.617741	744.914664
0.0000034300	20277.532119	746.156202
0.0000034400	20318.878788	747.363695
0.0000034500	20356.698548	748.536936
0.0000034600	20390.860899	749.675715
0.0000034700	20423.825864	750.779818
0.0000034800	20457.727219	751.849033
0.0000034900	20491.508662	752.883144
0.0000035000	20524.038056	753.881935
0.0000035100	20555.119654	754.845191
0.0000035200	20582.609093	755.772698
0.0000035300	20607.758421	756.664243
0.0000035400	20633.669565	757.519616
0.0000035500	20658.513821	758.338610
0.0000035600	20681.148465	759.121021
0.0000035700	20703.467450	759.866650
0.0000035800	20725.786435	760.575302
0.0000035900	20747.288941	761.246788
0.0000036000	20768.726198	761.880923
0.0000036100	20790.413866	762.477530
0.0000036200	20811.034644	763.036438
0.0000036300	20828.825080	763.557483
0.0000036400	20843.785172	764.040508
0.0000036500	20855.338265	764.485365
0.0000036600	20864.681746	764.891913
0.0000036700	20872.838427	765.260020
0.0000036800	20878.469838	765.589563
0.0000036900	20882.337793	765.880426
0.0000037000	20883.756312	766.132505
0.0000037100	20884.032108	766.345702
0.0000037200	20884.307904	766.519932
0.0000037300	20884.583700	766.655116
0.0000037400	20883.476949	766.751187
0.0000037500	20880.737240	766.808086
0.0000037600	20875.036690	766.825764
0.0000037700	20866.876118	766.804182
0.0000037800	20857.768570	766.743309
0.0000037900	20846.832317	766.643124
0.0000038000	20838.661159	766.503616
0.0000038100	20824.480165	766.324782
0.0000038200	20803.278840	766.106627
0.0000038300	20784.973108	765.849165
0.0000038400	20766.482216	765.552419
0.0000038500	20746.173205	765.216418
0.0000038600	20724.776133	764.841201
0.0000038700	20704.772195	764.426811
0.0000038800	20681.251933	763.973300
0.0000038900	20655.141151	763.480726
0.0000039000	20627.832983	762.949151
0.0000039100	20599.577838	762.378645
0.0000039200	20568.622847	761.769280
0.0000039300	20539.856296	761.121134
0.0000039400	20510.163941	760.434289
0.0000039500	20478.697545	759.708829
0.0000039600	20444.596552	758.944841
0.0000039700	20407.023312	758.142414
0.0000039800	20364.856273	757.301638
0.0000039900	20325.193332	756.422604
0.0000040000	20288.066249	755.505403
0.0000040100	20247.216508	754.550125
0.0000040200	20206.116358	753.556859
0.0000040300	20160.803316	752.525691
0.0000040400	20112.464184	751.456706
0.0000040500	20061.665031	750.349985
0.0000040600	20009.984149	749.205603
0.0000040700	19958.488429	748.023634
0.0000040800	19907.253704	746.804142
0.0000040900	19852.927640	745.547188
0.0000041000	19799.352806	744.252825
0.0000041100	19743.143375	742.921099
0.0000041200	19685.976381	741.552047
0.0000041300	19628.123407	740.145697
0.0000041400	19568.387066	738.702068
0.0000041500	19505.243726	737.221168
0.0000041600	19443.602845	735.702995
0.0000041700	19382.037800	734.147535
0.0000041800	19314.311248	732.554761
0.0000041900	19239.966446	730.924636
0.0000042000	19165.230150	729.257106
0.0000042100	19090.624352	727.552107
0.0000042200	19017.074856	725.809558
0.0000042300	18944.297763	724.029364
0.0000042400	18868.505165	722.211415
0.0000042500	18790.056797	720.355585
0.0000042600	18709.594565	718.461732
0.0000042700	18628.566265	716.529698
0.0000042800	18544.577122	714.559308
0.0000042900	18459.455843	712.550369
0.0000043000	18373.322337	710.502671
0.0000043100	18285.240216	708.415988
0.0000043200	18196.461528	706.290074
0.0000043300	18108.564568	704.124666
0.0000043400	18019.219811	701.919484
0.0000043500	17929.494146	699.674226
0.0000043600	17838.015613	697.388577
0.0000043700	17743.325828	695.062200
0.0000043800	17647.242910	692.694741
0.0000043900	17550.278264	690.285828
0.0000044000	17450.733684	687.835071
0.0000044100	17350.492538	685.342062
0.0000044200	17248.934094	682.806376
0.0000044300	17146.047765	680.227570
0.0000044400	17042.344957	677.605184
0.0000044500	16937.760422	674.938742
0.0000044600	16833.676707	672.227750
0.0000044700	16730.725128	669.471700
0.0000044800	16626.391003	666.670068
0.0000044900	16520.043013	663.822315
0.0000045000	16412.377725	660.927887
0.0000045100	16302.317663	657.986217
0.0000045200	16189.993327	654.996725
0.0000045300	16075.579291	651.958819
0.0000045400	15961.034756	648.871893
0.0000045500	15848.634585	645.735333
0.0000045600	15736.430161	642.548514
0.0000045700	15621.645803	639.310800
0.0000045800	15504.216262	636.021548
0.0000045900	15383.891129	632.680108
0.0000046000	15262.553770	629.285823
0.0000046100	15140.019025	625.838031
0.0000046200	15017.669441	622.336062
0.0000046300	14894.133056	618.779248
0.0000046400	14767.385420	615.166914
0.0000046500	14638.928992	611.498386
0.0000046600	14511.474203	607.772988
0.0000046700	14385.662957	603.990048
0.0000046800	14258.850072	600.148893
0.0000046900	14129.011097	596.248854
0.0000047000	13998.094646	592.289268
0.0000047100	13865.991396	588.269475
0.0000047200	13732.124690	584.188825
0.0000047300	13598.127487	580.046675
0.0000047400	13462.682487	575.842389
0.0000047500	13326.290511	571.575347
0.0000047600	13189.898534	567.244936
0.0000047700	13052.624830	562.850559
0.0000047800	12915.917195	558.391633
0.0000047900	12777.772350	553.867592
0.0000048000	12637.287395	549.277885
0.0000048100	12497.673580	544.621982
0.0000048200	12358.135602	539.899370
0.0000048300	12216.148187	535.109560
0.0000048400	12070.568614	530.252084
0.0000048500	11925.294113	525.326498
0.0000048600	11780.335270	520.332381
0.0000048700	11633.427812	515.269342
0.0000048800	11486.204695	510.137014
0.0000048900	11339.231988	504.935060
0.0000049000	11192.259281	499.663172
0.0000049100	11044.404846	494.321073
0.0000049200	10896.300002	488.908519
0.0000049300	10747.563840	483.425298
0.0000049400	10599.078087	477.871231
0.0000049500	10451.854970	472.246178
0.0000049600	10301.235441	466.550030
0.0000049700	10147.404660	460.782720
0.0000049800	9994.009450	454.944216
0.0000049900	9838.034307	449.034525
0.0000050000	9681.798167	443.053697
0.0000050100	9528.087298	437.001817
0.0000050200	9371.741833	430.879017
0.0000050300	9213.426579	424.685468
0.0000050400	9056.123551	418.421384
0.0000050500	8897.132904	412.087022
0.0000050600	8735.170828	405.682685
0.0000050700	8574.210391	399.208718
0.0000050800	8414.262181	392.665512
0.0000050900	8251.679373	386.053503
0.0000051000	8087.137364	379.373173
0.0000051100	7924.097814	372.625050
0.0000051200	7762.200987	365.809707
0.0000051300	7598.791115	358.927765
0.0000051400	7434.063945	351.979891
0.0000051500	7267.573320	344.966798
0.0000051600	7099.439151	337.889246
0.0000051700	6931.304982	330.748041
0.0000051800	6763.170814	323.544037
0.0000051900	6595.036645	316.278133
0.0000052000	6426.902476	308.951273
0.0000052100	6258.768308	301.564449
0.0000052200	6090.383729	294.118698
0.0000052300	5921.367833	286.615100
0.0000052400	5752.602346	279.054782
0.0000052500	5582.203903	271.438914
0.0000052600	5410.858483	263.768709
0.0000052700	5241.461679	256.045423
0.0000052800	5070.943324	248.270356
0.0000052900	4899.282245	240.444845
0.0000053000	4728.437644	232.570273
0.0000053100	4555.774926	224.648057
0.0000053200	4382.785963	216.679659
0.0000053300	4210.493566	208.666572
