Tiempo_(s)	Campo_(A/m)	Magnetizacion_(A/m)
0.0000000000	-51826.300356	-1134.441454
0.0000000100	-51828.196550	-1134.579172
0.0000000200	-51827.329210	-1134.672922
0.0000000300	-51822.284242	-1134.723694
0.0000000400	-51814.750166	-1134.732616
0.0000000500	-51805.443660	-1134.700952
0.0000000600	-51788.731048	-1134.630088
0.0000000700	-51766.365499	-1134.521524
0.0000000800	-51742.818330	-1134.376865
0.0000000900	-51716.782053	-1134.197807
0.0000001000	-51686.019294	-1133.986129
0.0000001100	-51647.892385	-1133.743672
0.0000001200	-51601.833210	-1133.472335
0.0000001300	-51552.209911	-1133.174051
0.0000001400	-51506.554461	-1132.850781
0.0000001500	-51463.555942	-1132.504489
0.0000001600	-51407.262477	-1132.137136
0.0000001700	-51342.891616	-1131.750658
0.0000001800	-51283.227975	-1131.346950
0.0000001900	-51218.095050	-1130.927855
0.0000002000	-51141.930679	-1130.495142
0.0000002100	-51066.231250	-1130.050495
0.0000002200	-50991.690749	-1129.595496
0.0000002300	-50907.213079	-1129.131610
0.0000002400	-50821.576481	-1128.660172
0.0000002500	-50730.664548	-1128.182372
0.0000002600	-50630.848506	-1127.699242
0.0000002700	-50531.436188	-1127.211647
0.0000002800	-50429.954320	-1126.720271
0.0000002900	-50323.620103	-1126.225609
0.0000003000	-50215.029250	-1125.727956
0.0000003100	-50102.154165	-1125.227401
0.0000003200	-49982.993377	-1124.723821
0.0000003300	-49867.442100	-1124.216873
0.0000003400	-49749.165811	-1123.705996
0.0000003500	-49621.543165	-1123.190400
0.0000003600	-49492.868195	-1122.669073
0.0000003700	-49363.728283	-1122.140777
0.0000003800	-49227.224220	-1121.604052
0.0000003900	-49088.928465	-1121.057218
0.0000004000	-48948.162864	-1120.498379
0.0000004100	-48798.767582	-1119.925430
0.0000004200	-48646.589503	-1119.336068
0.0000004300	-48493.504230	-1118.727794
0.0000004400	-48337.274390	-1118.097928
0.0000004500	-48175.285008	-1117.443620
0.0000004600	-48010.532092	-1116.761861
0.0000004700	-47844.788070	-1116.049499
0.0000004800	-47675.457232	-1115.303252
0.0000004900	-47502.265150	-1114.519725
0.0000005000	-47326.625916	-1113.695425
0.0000005100	-47148.813956	-1112.826782
0.0000005200	-46967.773519	-1111.910163
0.0000005300	-46780.382729	-1110.941892
0.0000005400	-46587.506825	-1109.918272
0.0000005500	-46391.360487	-1108.835602
0.0000005600	-46194.097177	-1107.690194
0.0000005700	-45993.731256	-1106.478400
0.0000005800	-45788.829370	-1105.196623
0.0000005900	-45582.219701	-1103.841344
0.0000006000	-45374.428413	-1102.409138
0.0000006100	-45163.450601	-1100.896692
0.0000006200	-44947.936824	-1099.300824
0.0000006300	-44730.166411	-1097.618501
0.0000006400	-44511.488805	-1095.846855
0.0000006500	-44289.224381	-1093.983202
0.0000006600	-44062.549859	-1092.025052
0.0000006700	-43830.558045	-1089.970123
0.0000006800	-43592.364440	-1087.816358
0.0000006900	-43352.188625	-1085.561933
0.0000007000	-43109.142671	-1083.205266
0.0000007100	-42863.375137	-1080.745025
0.0000007200	-42615.076540	-1078.180138
0.0000007300	-42363.191126	-1075.509793
0.0000007400	-42110.314607	-1072.733445
0.0000007500	-41855.665658	-1069.850816
0.0000007600	-41597.239376	-1066.861894
0.0000007700	-41334.002701	-1063.766931
0.0000007800	-41067.095297	-1060.566443
0.0000007900	-40796.875505	-1057.261196
0.0000008000	-40521.212553	-1053.852208
0.0000008100	-40240.296958	-1050.340732
0.0000008200	-39956.301445	-1046.728249
0.0000008300	-39670.301030	-1043.016455
0.0000008400	-39380.397416	-1039.207244
0.0000008500	-39087.920782	-1035.302695
0.0000008600	-38794.536955	-1031.305054
0.0000008700	-38499.971507	-1027.216712
0.0000008800	-38203.991968	-1023.040190
0.0000008900	-37902.927608	-1018.778111
0.0000009000	-37597.792225	-1014.433184
0.0000009100	-37293.205698	-1010.008177
0.0000009200	-36985.474603	-1005.505890
0.0000009300	-36673.165587	-1000.929135
0.0000009400	-36358.916317	-996.280709
0.0000009500	-36042.029380	-991.563363
0.0000009600	-35720.099578	-986.779783
0.0000009700	-35393.591854	-981.932555
0.0000009800	-35066.325498	-977.024148
0.0000009900	-34738.784714	-972.056879
0.0000010000	-34409.513456	-967.032890
0.0000010100	-34077.520618	-961.954124
0.0000010200	-33743.945865	-956.822300
0.0000010300	-33407.965916	-951.638884
0.0000010400	-33068.757489	-946.405075
0.0000010500	-32728.199618	-941.121772
0.0000010600	-32386.776510	-935.789563
0.0000010700	-32043.348500	-930.408699
0.0000010800	-31696.756660	-924.979083
0.0000010900	-31347.443241	-919.500247
0.0000011000	-30996.124920	-913.971341
0.0000011100	-30642.043064	-908.391122
0.0000011200	-30282.834431	-902.757942
0.0000011300	-29921.769457	-897.069742
0.0000011400	-29562.076619	-891.324044
0.0000011500	-29198.732316	-885.517947
0.0000011600	-28832.224182	-879.648129
0.0000011700	-28465.906565	-873.710846
0.0000011800	-28097.351574	-867.701936
0.0000011900	-27726.581903	-861.616826
0.0000012000	-27355.770276	-855.450538
0.0000012100	-26983.270129	-849.197704
0.0000012200	-26607.773976	-842.852578
0.0000012300	-26228.565139	-836.409049
0.0000012400	-25846.909150	-829.860666
0.0000012500	-25464.113496	-823.200651
0.0000012600	-25078.912645	-816.421929
0.0000012700	-24692.404307	-809.517147
0.0000012800	-24303.216345	-802.478708
0.0000012900	-23912.088131	-795.298793
0.0000013000	-23522.183492	-787.969397
0.0000013100	-23131.223099	-780.482362
0.0000013200	-22738.680792	-772.829408
0.0000013300	-22346.096530	-765.002173
0.0000013400	-21950.958510	-756.992245
0.0000013500	-21554.471048	-748.791206
0.0000013600	-21156.527538	-740.390670
0.0000013700	-20753.034264	-731.782317
0.0000013800	-20344.753291	-722.957943
0.0000013900	-19934.109077	-713.909494
0.0000014000	-19521.376049	-704.629111
0.0000014100	-19108.982097	-695.109169
0.0000014200	-18697.346779	-685.342318
0.0000014300	-18284.339324	-675.321526
0.0000014400	-17869.749954	-665.040116
0.0000014500	-17452.713432	-654.491807
0.0000014600	-17035.867426	-643.670752
0.0000014700	-16620.877763	-632.571573
0.0000014800	-16205.613671	-621.189400
0.0000014900	-15787.205013	-609.519901
0.0000015000	-15366.623630	-597.559318
0.0000015100	-14945.009187	-585.304495
0.0000015200	-14522.529506	-572.752906
0.0000015300	-14099.142632	-559.902682
0.0000015400	-13673.624989	-546.752635
0.0000015500	-13248.614245	-533.302277
0.0000015600	-12824.278222	-519.551840
0.0000015700	-12399.076962	-505.502291
0.0000015800	-11972.968509	-491.155345
0.0000015900	-11546.818100	-476.513475
0.0000016000	-11119.444115	-461.579920
0.0000016100	-10687.743943	-446.358684
0.0000016200	-10255.010710	-430.854544
0.0000016300	-9820.463091	-415.073040
0.0000016400	-9382.961422	-399.020475
0.0000016500	-8943.477543	-382.703905
0.0000016600	-8503.993664	-366.131124
0.0000016700	-8065.416978	-349.310653
0.0000016800	-7625.193729	-332.251720
0.0000016900	-7185.751806	-314.964241
0.0000017000	-6745.593206	-297.458791
0.0000017100	-6303.829997	-279.746585
0.0000017200	-5861.750406	-261.839442
0.0000017300	-5419.586903	-243.749757
0.0000017400	-4976.474252	-225.490464
0.0000017500	-4533.087173	-207.075004
0.0000017600	-4090.565332	-188.517278
0.0000017700	-3647.220209	-169.831614
0.0000017800	-3204.381985	-151.032722
0.0000017900	-2761.269334	-132.135647
0.0000018000	-2319.380259	-113.155727
0.0000018100	-1877.533139	-94.108543
0.0000018200	-1433.090307	-75.009875
0.0000018300	-990.442599	-55.875650
0.0000018400	-550.325954	-36.721892
0.0000018500	-108.013891	-17.564676
0.0000018600	336.280381	1.579927
0.0000018700	778.295323	20.695893
0.0000018800	1219.235249	39.767301
0.0000018900	1660.724030	58.778381
0.0000019000	2104.385536	77.713559
0.0000019100	2547.582099	96.557508
0.0000019200	2988.563981	115.295192
0.0000019300	3430.685528	133.911912
0.0000019400	3872.700470	152.393353
0.0000019500	4313.872868	170.725619
0.0000019600	4755.719988	188.895278
0.0000019700	5197.418547	206.889400
0.0000019800	5638.316518	224.695590
0.0000019900	6078.791501	242.302024
0.0000020000	6515.721623	259.697479
0.0000020100	6950.902008	276.871360
0.0000020200	7388.213162	293.813729
0.0000020300	7826.938408	310.515326
0.0000020400	8265.747565	326.967587
0.0000020500	8703.184586	343.162664
0.0000020600	9140.495740	359.093440
0.0000020700	9575.485609	374.753536
0.0000020800	10006.339806	390.137321
0.0000020900	10436.793709	405.239917
0.0000021000	10868.070894	420.057202
0.0000021100	11297.259265	434.585805
0.0000021200	11724.949633	448.823107
0.0000021300	12152.956384	462.767227
0.0000021400	12582.209404	476.417019
0.0000021500	13012.304968	489.772054
0.0000021600	13439.614304	502.832606
0.0000021700	13863.401472	515.599633
0.0000021800	14288.835204	528.074759
0.0000021900	14716.441661	540.260245
0.0000022000	15141.303845	552.158968
0.0000022100	15564.141864	563.774394
0.0000022200	15986.030734	575.110543
0.0000022300	16405.956658	586.171965
0.0000022400	16822.844620	596.963700
0.0000022500	17237.559856	607.491248
0.0000022600	17651.916754	617.760532
0.0000022700	18066.273653	627.777860
0.0000022800	18479.765313	637.549890
0.0000022900	18891.758970	647.083588
0.0000023000	19302.212669	656.386194
0.0000023100	19710.935892	665.465178
0.0000023200	20118.351628	674.328202
0.0000023300	20524.734303	682.983083
0.0000023400	20927.823852	691.437752
0.0000023500	21326.461346	699.700215
0.0000023600	21722.716337	707.778518
0.0000023700	22117.114985	715.680707
0.0000023800	22509.783159	723.414792
0.0000023900	22902.092995	730.988716
0.0000024000	23293.770064	738.410316
0.0000024100	23683.674703	745.687293
0.0000024200	24072.397721	752.827184
0.0000024300	24458.483072	759.837329
0.0000024400	24841.172121	766.724845
0.0000024500	25222.870066	773.496604
0.0000024600	25605.158821	780.159205
0.0000024700	25985.126291	786.718955
0.0000024800	26360.641707	793.181853
0.0000024900	26734.575207	799.553567
0.0000025000	27108.150370	805.839426
0.0000025100	27480.185573	812.044403
0.0000025200	27849.899491	818.173108
0.0000025300	28218.031494	824.229779
0.0000025400	28584.265200	830.218278
0.0000025500	28949.443153	836.142086
0.0000025600	29310.843772	842.004305
0.0000025700	29665.493745	847.807657
0.0000025800	30019.068703	853.554488
0.0000025900	30373.466942	859.246776
0.0000026000	30725.585852	864.886136
0.0000026100	31076.481185	870.473830
0.0000026200	31427.334563	876.010780
0.0000026300	31776.183039	881.497579
0.0000026400	32123.724028	886.934508
0.0000026500	32468.120449	892.321549
0.0000026600	32807.664522	897.658407
0.0000026700	33144.719487	902.944524
0.0000026800	33481.057774	908.179104
0.0000026900	33816.214442	913.361127
0.0000027000	34147.002966	918.489377
0.0000027100	34474.627661	923.562460
0.0000027200	34801.894017	928.578831
0.0000027300	35128.569563	933.536811
0.0000027400	35453.556590	938.434616
0.0000027500	35776.919746	943.270375
0.0000027600	36095.872804	948.042159
0.0000027700	36409.824953	952.747998
0.0000027800	36719.347741	957.385909
0.0000027900	37025.199800	961.953913
0.0000028000	37330.693521	966.450062
0.0000028100	37633.824001	970.872452
0.0000028200	37934.358768	975.219252
0.0000028300	38232.130001	979.488714
0.0000028400	38525.956078	983.679196
0.0000028500	38817.293047	987.789177
0.0000028600	39107.638912	991.817274
0.0000028700	39396.296257	995.762251
0.0000028800	39680.734020	999.623037
0.0000028900	39961.626921	1003.398733
0.0000029000	40239.756287	1007.088624
0.0000029100	40514.573264	1010.692185
0.0000029200	40784.305420	1014.209088
0.0000029300	41048.742978	1017.639209
0.0000029400	41311.007811	1020.982627
0.0000029500	41571.225786	1024.239629
0.0000029600	41828.489710	1027.410707
0.0000029700	42083.855336	1030.496560
0.0000029800	42336.773811	1033.498089
0.0000029900	42585.240230	1036.416391
0.0000030000	42830.436216	1039.252756
0.0000030100	43073.143094	1042.008658
0.0000030200	43313.635292	1044.685747
0.0000030300	43553.220296	1047.285838
0.0000030400	43791.032870	1049.810902
0.0000030500	44026.440247	1052.263053
0.0000030600	44255.432623	1054.644535
0.0000030700	44477.167454	1056.957711
0.0000030800	44696.203399	1059.205041
0.0000030900	44914.332151	1061.389079
0.0000031000	45130.139618	1063.512444
0.0000031100	45343.141594	1065.577817
0.0000031200	45554.919994	1067.587914
0.0000031300	45764.102681	1069.545476
0.0000031400	45967.018928	1071.453251
0.0000031500	46165.315297	1073.313978
0.0000031600	46362.853034	1075.130369
0.0000031700	46559.799961	1076.905097
0.0000031800	46755.248884	1078.640776
0.0000031900	46946.371620	1080.339950
0.0000032000	47131.144004	1082.005075
0.0000032100	47311.254555	1083.638511
0.0000032200	47488.052716	1085.242501
0.0000032300	47661.812915	1086.819169
0.0000032400	47832.028253	1088.370499
0.0000032500	47998.214524	1089.898333
0.0000032600	48159.948741	1091.404359
0.0000032700	48317.188948	1092.890103
0.0000032800	48471.497797	1094.356921
0.0000032900	48624.583069	1095.805999
0.0000033000	48776.803105	1097.238343
0.0000033100	48925.878573	1098.654781
0.0000033200	49070.650547	1100.055958
0.0000033300	49209.388552	1101.442337
0.0000033400	49342.408971	1102.814201
0.0000033500	49473.721609	1104.171655
0.0000033600	49604.169009	1105.514630
0.0000033700	49729.931882	1106.842885
0.0000033800	49852.214544	1108.156018
0.0000033900	49974.180823	1109.453467
0.0000034000	50090.955676	1110.734525
0.0000034100	50202.477887	1111.998343
0.0000034200	50312.376228	1113.243944
0.0000034300	50419.320517	1114.470232
0.0000034400	50522.361607	1115.676007
0.0000034500	50621.499497	1116.859972
0.0000034600	50717.789940	1118.020750
0.0000034700	50810.177184	1119.156897
0.0000034800	50898.238240	1120.266915
0.0000034900	50981.363036	1121.349267
0.0000035000	51060.607325	1122.402391
0.0000035100	51139.028333	1123.424714
0.0000035200	51213.988391	1124.414669
0.0000035300	51284.877426	1125.370705
0.0000035400	51353.403221	1126.291307
0.0000035500	51418.468066	1127.175003
0.0000035600	51476.233409	1128.020385
0.0000035700	51527.332018	1128.826115
0.0000035800	51574.717943	1129.590941
0.0000035900	51619.847232	1130.313709
0.0000036000	51662.422764	1130.993372
0.0000036100	51699.280710	1131.629000
0.0000036200	51732.067633	1132.219792
0.0000036300	51763.356553	1132.765080
0.0000036400	51792.324188	1133.264338
0.0000036500	51817.621094	1133.717188
0.0000036600	51837.284326	1134.123405
0.0000036700	51853.192918	1134.482918
0.0000036800	51867.035390	1134.795815
0.0000036900	51877.859162	1135.062343
0.0000037000	51883.682025	1135.282909
0.0000037100	51884.801100	1135.458075
0.0000037200	51883.389111	1135.588560
0.0000037300	51877.883407	1135.675232
0.0000037400	51868.474502	1135.719104
0.0000037500	51856.767006	1135.721328
0.0000037600	51841.282177	1135.683188
0.0000037700	51821.577765	1135.606091
0.0000037800	51800.481954	1135.491554
0.0000037900	51778.288434	1135.341199
0.0000038000	51754.829383	1135.156736
0.0000038100	51724.638947	1134.939956
0.0000038200	51680.817921	1134.692710
0.0000038300	51626.365742	1134.416904
0.0000038400	51572.401200	1134.114476
0.0000038500	51527.192207	1133.787389
0.0000038600	51480.039529	1133.437609
0.0000038700	51415.985826	1133.067092
0.0000038800	51354.089018	1132.677769
0.0000038900	51296.156627	1132.271528
0.0000039000	51221.826679	1131.850200
0.0000039100	51142.334862	1131.415541
0.0000039200	51067.714656	1130.969219
0.0000039300	50986.656755	1130.512798
0.0000039400	50896.804782	1130.047721
0.0000039500	50816.489683	1129.575301
0.0000039600	50732.458469	1129.096702
0.0000039700	50632.982278	1128.612930
0.0000039800	50536.063276	1128.124820
0.0000039900	50434.604876	1127.633025
0.0000040000	50322.218203	1127.138006
0.0000040100	50214.477532	1126.640026
0.0000040200	50109.413053	1126.139139
0.0000040300	49991.202189	1125.635184
0.0000040400	49870.547604	1125.127784
0.0000040500	49753.838175	1124.616338
0.0000040600	49625.648187	1124.100020
0.0000040700	49491.195189	1123.577781
0.0000040800	49359.295948	1123.048345
0.0000040900	49222.415060	1122.510215
0.0000041000	49078.741570	1121.961675
0.0000041100	48935.639629	1121.400793
0.0000041200	48791.016990	1120.825431
0.0000041300	48638.671863	1120.233253
0.0000041400	48484.218661	1119.621728
0.0000041500	48330.123796	1118.988148
0.0000041600	48168.790649	1118.329635
0.0000041700	47999.990179	1117.643155
0.0000041800	47829.714399	1116.925534
0.0000041900	47657.010728	1116.173470
0.0000042000	47477.766190	1115.383549
0.0000042100	47295.190000	1114.552266
0.0000042200	47113.479047	1113.676038
0.0000042300	46930.079575	1112.751223
0.0000042400	46742.460521	1111.774142
0.0000042500	46551.296605	1110.741095
0.0000042600	46357.369153	1109.648380
0.0000042700	46159.412635	1108.492318
0.0000042800	45960.042025	1107.269264
0.0000042900	45755.712462	1105.975637
0.0000043000	45544.315870	1104.607929
0.0000043100	45329.713492	1103.162734
0.0000043200	45112.705918	1101.636758
0.0000043300	44893.060676	1100.026844
0.0000043400	44669.744706	1098.329986
0.0000043500	44444.888777	1096.543345
0.0000043600	44216.297470	1094.664267
0.0000043700	43982.179093	1092.690296
0.0000043800	43744.622460	1090.619188
0.0000043900	43504.744541	1088.448925
0.0000044000	43264.107990	1086.177720
0.0000044100	43022.838673	1083.804033
0.0000044200	42778.150361	1081.326576
0.0000044300	42529.791322	1078.744318
0.0000044400	42276.031079	1076.056494
0.0000044500	42019.781728	1073.262602
0.0000044600	41763.680938	1070.362408
0.0000044700	41505.258862	1067.355945
0.0000044800	41243.375836	1064.243510
0.0000044900	40976.324079	1061.025659
0.0000045000	40704.694401	1057.703202
0.0000045100	40429.900893	1054.277196
0.0000045200	40153.060527	1050.748934
0.0000045300	39872.991683	1047.119933
0.0000045400	39590.624247	1043.391923
0.0000045500	39307.391574	1039.566831
0.0000045600	39023.842517	1035.646764
0.0000045700	38736.516128	1031.633993
0.0000045800	38442.332488	1027.530934
0.0000045900	38142.579822	1023.340124
0.0000046000	37839.430855	1019.064205
0.0000046100	37535.607167	1014.705895
0.0000046200	37228.638911	1010.267970
0.0000046300	36917.092735	1005.753233
0.0000046400	36603.880732	1001.164498
0.0000046500	36290.668729	996.504552
0.0000046600	35975.177397	991.776140
0.0000046700	35654.875671	986.981932
0.0000046800	35331.135689	982.124498
0.0000046900	35004.799995	977.206281
0.0000047000	34677.072902	972.229572
0.0000047100	34347.847806	967.196482
0.0000047200	34016.259468	962.108917
0.0000047300	33682.666229	956.968557
0.0000047400	33344.495068	951.776824
0.0000047500	33002.294840	946.534868
0.0000047600	32658.406093	941.243540
0.0000047700	32312.577093	935.903370
0.0000047800	31964.617323	930.514556
0.0000047900	31614.336269	925.076936
0.0000048000	31262.473299	919.589981
0.0000048100	30909.112327	914.052777
0.0000048200	30553.346157	908.464014
0.0000048300	30195.681691	902.821976
0.0000048400	29837.151986	897.124534
0.0000048500	29476.891807	891.369139
0.0000048600	29113.235327	885.552821
0.0000048700	28748.080843	879.672188
0.0000048800	28381.744739	873.723424
0.0000048900	28013.193955	867.702300
0.0000049000	27643.777933	861.604174
0.0000049100	27274.319955	855.424002
0.0000049200	26902.899031	849.156352
0.0000049300	26526.076903	842.795417
0.0000049400	26146.639801	836.335027
0.0000049500	25767.202699	829.768674
0.0000049600	25383.164982	823.089531
0.0000049700	24993.642150	816.290474
0.0000049800	24602.685964	809.364107
0.0000049900	24212.362545	802.302794
0.0000050000	23821.764697	795.098683
0.0000050100	23429.943274	787.743742
0.0000050200	23037.805468	780.229789
0.0000050300	22645.393234	772.548528
0.0000050400	22250.110861	764.691585
0.0000050500	21852.529896	756.650547
0.0000050600	21453.450927	748.416997
0.0000050700	21050.994920	739.982557
0.0000050800	20647.063603	731.338924
0.0000050900	20244.229995	722.477916
0.0000051000	19841.205871	713.391509
0.0000051100	19437.042082	704.071879
0.0000051200	19031.147819	694.511445
0.0000051300	18622.680536	684.702907
0.0000051400	18214.403769	674.639289
0.0000051500	17805.155160	664.313978
0.0000051600	17394.282681	653.720763
0.0000051700	16983.135774	642.853871
0.0000051800	16569.477066	631.708008
0.0000051900	16152.845045	620.278390
0.0000052000	15734.398638	608.560779
0.0000052100	15317.450234	596.551516
0.0000052200	14898.222500	584.247547
