Tiempo_(s)	Campo_(A/m)	Magnetizacion_(A/m)
0.0000000000	-41400.987297	-1270.037210
0.0000000100	-41399.755533	-1269.716508
0.0000000200	-41393.347825	-1269.202475
0.0000000300	-41377.169957	-1268.502945
0.0000000400	-41354.728777	-1267.627483
0.0000000500	-41329.723124	-1266.587287
0.0000000600	-41295.058415	-1265.395068
0.0000000700	-41252.499182	-1264.064898
0.0000000800	-41205.690714	-1262.612043
0.0000000900	-41149.787814	-1261.052771
0.0000001000	-41083.105719	-1259.404141
0.0000001100	-41006.075731	-1257.683779
0.0000001200	-40919.082153	-1255.909643
0.0000001300	-40825.565169	-1254.099776
0.0000001400	-40731.774986	-1252.272052
0.0000001500	-40631.933146	-1250.443928
0.0000001600	-40521.651972	-1248.632185
0.0000001700	-40407.239219	-1246.852687
0.0000001800	-40285.083491	-1245.120140
0.0000001900	-40153.443911	-1243.447863
0.0000002000	-40019.662049	-1241.847582
0.0000002100	-39877.499371	-1240.329231
0.0000002200	-39724.910468	-1238.900786
0.0000002300	-39570.928225	-1237.568112
0.0000002400	-39408.793926	-1236.334842
0.0000002500	-39237.644966	-1235.202283
0.0000002600	-39064.166846	-1234.169352
0.0000002700	-38882.707879	-1233.232538
0.0000002800	-38692.361020	-1232.385900
0.0000002900	-38497.895689	-1231.621095
0.0000003000	-38298.447845	-1230.927434
0.0000003100	-38088.382903	-1230.291975
0.0000003200	-37871.654679	-1229.699638
0.0000003300	-37651.584265	-1229.133352
0.0000003400	-37420.747764	-1228.574229
0.0000003500	-37183.730277	-1228.001758
0.0000003600	-36943.688242	-1227.394024
0.0000003700	-36695.745129	-1226.727942
0.0000003800	-36441.347832	-1225.979509
0.0000003900	-36181.572047	-1225.124066
0.0000004000	-35915.617836	-1224.136566
0.0000004100	-35640.144446	-1222.991854
0.0000004200	-35359.270347	-1221.664936
0.0000004300	-35074.489433	-1220.131257
0.0000004400	-34778.935877	-1218.366960
0.0000004500	-34475.465578	-1216.349147
0.0000004600	-34168.441432	-1214.056112
0.0000004700	-33855.647943	-1211.467569
0.0000004800	-33532.868643	-1208.564852
0.0000004900	-33204.175004	-1205.331089
0.0000005000	-32873.205760	-1201.751359
0.0000005100	-32536.026756	-1197.812814
0.0000005200	-32193.802573	-1193.504766
0.0000005300	-31847.224606	-1188.818759
0.0000005400	-31495.512576	-1183.748587
0.0000005500	-31140.351249	-1178.290298
0.0000005600	-30780.087193	-1172.442151
0.0000005700	-30411.677635	-1166.204552
0.0000005800	-30037.331517	-1159.579947
0.0000005900	-29660.367374	-1152.572696
0.0000006000	-29277.684882	-1145.188908
0.0000006100	-28889.570348	-1137.436261
0.0000006200	-28498.466594	-1129.323786
0.0000006300	-28103.120158	-1120.861642
0.0000006400	-27703.619921	-1112.060867
0.0000006500	-27295.551992	-1102.933119
0.0000006600	-26878.529509	-1093.490400
0.0000006700	-26457.781969	-1083.744786
0.0000006800	-26033.962880	-1073.708145
0.0000006900	-25607.436883	-1063.391862
0.0000007000	-25176.696979	-1052.806565
0.0000007100	-24740.683136	-1041.961875
0.0000007200	-24299.001939	-1030.866149
0.0000007300	-23851.882146	-1019.526265
0.0000007400	-23401.357497	-1007.947408
0.0000007500	-22946.834592	-996.132898
0.0000007600	-22488.691179	-984.084033
0.0000007700	-22027.891853	-971.799969
0.0000007800	-21563.843214	-959.277637
0.0000007900	-21097.183103	-946.511685
0.0000008000	-20628.082730	-933.494464
0.0000008100	-20155.777485	-920.216046
0.0000008200	-19680.460800	-906.664286
0.0000008300	-19201.145857	-892.824913
0.0000008400	-18718.105859	-878.681662
0.0000008500	-18232.930131	-864.216442
0.0000008600	-17743.562717	-849.409537
0.0000008700	-17251.190415	-834.239834
0.0000008800	-16756.875816	-818.685089
0.0000008900	-16256.633770	-802.722210
0.0000009000	-15751.635412	-786.327568
0.0000009100	-15245.716899	-769.477327
0.0000009200	-14739.227207	-752.147780
0.0000009300	-14231.084084	-734.315711
0.0000009400	-13719.447223	-715.958750
0.0000009500	-13204.767587	-697.055734
0.0000009600	-12689.538992	-677.587065
0.0000009700	-12172.812509	-657.535061
0.0000009800	-11652.919042	-636.884295
0.0000009900	-11129.893919	-615.621910
0.0000010000	-10606.475380	-593.737925
0.0000010100	-10081.358969	-571.225507
0.0000010200	-9553.570979	-548.081213
0.0000010300	-9026.109742	-524.305209
0.0000010400	-8496.817311	-499.901441
0.0000010500	-7963.384187	-474.877775
0.0000010600	-7428.453176	-449.246099
0.0000010700	-6891.193006	-423.022374
0.0000010800	-6351.178928	-396.226648
0.0000010900	-5810.958311	-368.883026
0.0000011000	-5269.424126	-341.019594
0.0000011100	-4728.216694	-312.668296
0.0000011200	-4186.875939	-283.864777
0.0000011300	-3643.190358	-254.648175
0.0000011400	-3097.806905	-225.060879
0.0000011500	-2552.230022	-195.148252
0.0000011600	-2006.281944	-164.958315
0.0000011700	-1458.464783	-134.541402
0.0000011800	-909.134069	-103.949792
0.0000011900	-359.698806	-73.237314
0.0000012000	187.822934	-42.458936
0.0000012100	733.571027	-11.670340
0.0000012200	1279.496885	19.072510
0.0000012300	1824.191502	49.713810
0.0000012400	2367.594770	80.198351
0.0000012500	2912.200504	110.471945
0.0000012600	3456.917341	140.481853
0.0000012700	4001.485189	170.177185
0.0000012800	4545.186436	199.509284
0.0000012900	5085.371724	228.432091
0.0000013000	5622.603120	256.902471
0.0000013100	6160.123383	284.880518
0.0000013200	6698.617353	312.329820
0.0000013300	7234.150877	339.217685
0.0000013400	7766.330539	365.515331
0.0000013500	8296.107827	391.198030
0.0000013600	8823.806935	416.245213
0.0000013700	9351.157069	440.640528
0.0000013800	9877.536054	464.371856
0.0000013900	10402.690352	487.431282
0.0000014000	10927.489122	509.815025
0.0000014100	11450.634461	531.523324
0.0000014200	11969.832538	552.560288
0.0000014300	12486.685789	572.933703
0.0000014400	13004.021338	592.654813
0.0000014500	13520.496841	611.738063
0.0000014600	14033.167518	630.200814
0.0000014700	14541.713169	648.063042
0.0000014800	15048.596276	665.347006
0.0000014900	15554.952645	682.076910
0.0000015000	16060.560071	698.278550
0.0000015100	16563.460588	713.978952
0.0000015200	17061.969434	729.206010
0.0000015300	17557.057756	743.988131
0.0000015400	18048.779109	758.353880
0.0000015500	18535.648713	772.331634
0.0000015600	19018.920030	785.949264
0.0000015700	19499.602095	799.233820
0.0000015800	19978.110545	812.211247
0.0000015900	20453.274246	824.906129
0.0000016000	20922.672599	837.341449
0.0000016100	21390.246310	849.538395
0.0000016200	21855.928718	861.516186
0.0000016300	22318.072947	873.291936
0.0000016400	22776.203252	884.880555
0.0000016500	23230.446404	896.294682
0.0000016600	23681.084714	907.544654
0.0000016700	24126.566742	918.638509
0.0000016800	24567.368232	929.582026
0.0000016900	25004.764864	940.378788
0.0000017000	25438.207682	951.030292
0.0000017100	25865.723053	961.536066
0.0000017200	26287.666506	971.893831
0.0000017300	26707.569666	982.099672
0.0000017400	27124.305842	992.148238
0.0000017500	27534.114648	1002.032951
0.0000017600	27936.415792	1011.746232
0.0000017700	28333.373777	1021.279734
0.0000017800	28728.440460	1030.624582
0.0000017900	29119.613434	1039.771611
0.0000018000	29504.281229	1048.711607
0.0000018100	29881.930214	1057.435537
0.0000018200	30255.143085	1065.934772
0.0000018300	30624.773336	1074.201298
0.0000018400	30987.378222	1082.227911
0.0000018500	31342.586549	1090.008389
0.0000018600	31694.374353	1097.537652
0.0000018700	32042.750746	1104.811892
0.0000018800	32384.710842	1111.828680
0.0000018900	32720.001102	1118.587046
0.0000019000	33050.728479	1125.087536
0.0000019100	33378.971154	1131.332237
0.0000019200	33703.260013	1137.324776
0.0000019300	34020.256861	1143.070292
0.0000019400	34330.361669	1148.575380
0.0000019500	34635.963702	1153.848015
0.0000019600	34934.993893	1158.897445
0.0000019700	35227.376469	1163.734065
0.0000019800	35514.291675	1168.369273
0.0000019900	35793.381579	1172.815309
0.0000020000	36063.050297	1177.085075
0.0000020100	36325.062364	1181.191951
0.0000020200	36581.769159	1185.149593
0.0000020300	36834.233272	1188.971739
0.0000020400	37081.379005	1192.671997
0.0000020500	37322.930599	1196.263651
0.0000020600	37559.290583	1199.759458
0.0000020700	37786.102613	1203.171464
0.0000020800	38005.518083	1206.510821
0.0000020900	38219.221758	1209.787629
0.0000021000	38426.715675	1213.010783
0.0000021100	38629.729037	1216.187846
0.0000021200	38827.312916	1219.324946
0.0000021300	39016.922504	1222.426683
0.0000021400	39196.984136	1225.496075
0.0000021500	39369.982518	1228.534523
0.0000021600	39538.084709	1231.541796
0.0000021700	39700.601875	1234.516053
0.0000021800	39857.020384	1237.453886
0.0000021900	40008.269503	1240.350382
0.0000022000	40151.173134	1243.199224
0.0000022100	40285.433299	1245.992801
0.0000022200	40412.534775	1248.722348
0.0000022300	40533.270950	1251.378102
0.0000022400	40648.888729	1253.949473
0.0000022500	40757.363487	1256.425238
0.0000022600	40858.070491	1258.793737
0.0000022700	40953.427782	1261.043080
0.0000022800	41043.571242	1263.161366
0.0000022900	41127.276184	1265.136894
0.0000023000	41203.340141	1266.958382
0.0000023100	41271.436360	1268.615176
0.0000023200	41332.218347	1270.097453
0.0000023300	41383.890236	1271.396413
0.0000023400	41428.581202	1272.504457
0.0000023500	41466.833650	1273.415349
0.0000023600	41497.362785	1274.124357
0.0000023700	41522.246786	1274.628376
0.0000023800	41539.816556	1274.926022
0.0000023900	41549.307484	1275.017702
0.0000024000	41551.395300	1274.905664
0.0000024100	41546.286541	1274.594006
0.0000024200	41536.326033	1274.088672
0.0000024300	41521.247130	1273.397407
0.0000024400	41499.574165	1272.529693
0.0000024500	41470.260215	1271.496648
0.0000024600	41433.140624	1270.310910
0.0000024700	41390.502669	1268.986488
0.0000024800	41341.232765	1267.538592
0.0000024900	41285.115260	1265.983445
0.0000025000	41221.114904	1264.338072
0.0000025100	41142.165885	1262.620076
0.0000025200	41050.826123	1260.847404
0.0000025300	40955.901181	1259.038100
0.0000025400	40863.981126	1257.210054
0.0000025500	40766.858912	1255.380748
0.0000025600	40653.024938	1253.567005
0.0000025700	40540.282329	1251.784739
0.0000025800	40421.966365	1250.048719
0.0000025900	40285.929606	1248.372340
0.0000026000	40150.835221	1246.767411
0.0000026100	40010.409349	1245.243962
0.0000026200	39858.617436	1243.810068
0.0000026300	39705.325076	1242.471704
0.0000026400	39547.970357	1241.232616
0.0000026500	39378.947622	1240.094232
0.0000026600	39201.627836	1239.055586
0.0000026700	39019.614403	1238.113291
0.0000026800	38828.624196	1237.261527
0.0000026900	38631.801978	1236.492068
0.0000027000	38431.961765	1235.794343
0.0000027100	38223.582634	1235.155519
0.0000027200	38006.873682	1234.560619
0.0000027300	37783.457006	1233.992669
0.0000027400	37555.426454	1233.432866
0.0000027500	37320.957383	1232.860777
0.0000027600	37080.691630	1232.254549
0.0000027700	36839.050764	1231.591152
0.0000027800	36584.990380	1230.846622
0.0000027900	36324.939882	1229.996325
0.0000028000	36063.676370	1229.015230
0.0000028100	35791.906862	1227.878178
0.0000028200	35513.314533	1226.560162
0.0000028300	35225.447450	1225.036598
0.0000028400	34932.735171	1223.283589
0.0000028500	34634.535862	1221.278182
0.0000028600	34328.172825	1218.998606
0.0000028700	34020.447782	1216.424501
0.0000028800	33703.523759	1213.537112
0.0000028900	33380.069777	1210.319476
0.0000029000	33053.531139	1206.756572
0.0000029100	32720.167120	1202.835443
0.0000029200	32380.164599	1198.545294
0.0000029300	32032.311996	1193.877555
0.0000029400	31680.787890	1188.825907
0.0000029500	31323.640871	1183.386287
0.0000029600	30960.988595	1177.556845
0.0000029700	30594.509273	1171.337881
0.0000029800	30222.153499	1164.731742
0.0000029900	29845.199515	1157.742696
0.0000030000	29462.095880	1150.376769
0.0000030100	29073.071351	1142.641564
0.0000030200	28680.270772	1134.546051
0.0000030300	28283.820910	1126.100339
0.0000030400	27882.912715	1117.315427
0.0000030500	27477.552740	1108.202947
0.0000030600	27067.156698	1098.774893
0.0000030700	26650.759995	1089.043344
0.0000030800	26226.639978	1079.020183
0.0000030900	25795.827905	1068.716825
0.0000031000	25360.884252	1058.143946
0.0000031100	24921.571147	1047.311218
0.0000031200	24477.146201	1036.227072
0.0000031300	24028.574009	1024.898461
0.0000031400	23578.310499	1013.330662
0.0000031500	23124.286605	1001.527091
0.0000031600	22665.522063	989.489149
0.0000031700	22205.094979	977.216103
0.0000031800	21743.941171	964.704996
0.0000031900	21280.384988	951.950592
0.0000032000	20809.774667	938.945355
0.0000032100	20331.641018	925.679471
0.0000032200	19850.309050	912.140904
0.0000032300	19367.745841	898.315485
0.0000032400	18882.475725	884.187047
0.0000032500	18392.591731	869.737586
0.0000032600	17899.553860	854.947459
0.0000032700	17404.609020	839.795620
0.0000032800	16907.750657	824.259873
0.0000032900	16408.407591	808.317163
0.0000033000	15905.859654	791.943879
0.0000033100	15402.087029	775.116187
0.0000033200	14897.654342	757.810366
0.0000033300	14390.492527	740.003167
0.0000033400	13880.430374	721.672169
0.0000033500	13366.992138	702.796139
0.0000033600	12850.000056	683.355394
0.0000033700	12330.367728	663.332147
0.0000033800	11807.397205	642.710851
0.0000033900	11282.170738	621.478513
0.0000034000	10756.328651	599.625001
0.0000034100	10229.588630	577.143319
0.0000034200	9702.937491	554.029850
0.0000034300	9176.102035	530.284574
0.0000034400	8646.255137	505.911244
0.0000034500	8112.749844	480.917528
0.0000034600	7577.708777	455.315112
0.0000034700	7041.480910	429.119750
0.0000034800	6504.443991	402.351289
0.0000034900	5967.273749	375.033632
0.0000035000	5429.925743	347.194667
0.0000035100	4892.355533	318.866150
0.0000035200	4352.678368	290.083544
0.0000035300	3810.605382	260.885819
0.0000035400	3267.463253	231.315208
0.0000035500	2724.410006	201.416932
0.0000035600	2181.216882	171.238886
0.0000035700	1637.599009	140.831299
0.0000035800	1095.532578	110.246360
0.0000035900	552.295013	79.537832
0.0000036000	7.861535	48.760634
0.0000036100	-534.642753	17.970425
0.0000036200	-1077.524790	-12.776837
0.0000036300	-1621.393642	-43.425329
0.0000036400	-2165.084730	-73.919801
0.0000036500	-2707.300151	-104.206004
0.0000036600	-3248.246445	-134.231119
0.0000036700	-3789.392722	-163.944151
0.0000036800	-4330.094590	-193.296325
0.0000036900	-4869.527329	-222.241443
0.0000037000	-5408.344448	-250.736216
0.0000037100	-5946.672715	-278.740571
0.0000037200	-6482.589495	-306.217915
0.0000037300	-7017.475019	-333.135364
0.0000037400	-7552.776178	-359.463939
0.0000037500	-8086.363799	-385.178704
0.0000037600	-8618.586856	-410.258883
0.0000037700	-9149.934200	-434.687910
0.0000037800	-9678.692293	-458.453456
0.0000037900	-10205.298990	-481.547397
0.0000038000	-10731.490052	-503.965748
0.0000038100	-11257.014498	-525.708550
0.0000038200	-11779.883032	-546.779721
0.0000038300	-12300.451180	-567.186871
0.0000038400	-12819.143693	-586.941075
0.0000038500	-13333.511195	-606.056624
0.0000038600	-13843.931436	-624.550742
0.0000038700	-14351.146805	-642.443281
0.0000038800	-14856.217332	-659.756395
0.0000038900	-15361.392409	-676.514197
0.0000039000	-15865.685218	-692.742413
0.0000039100	-16366.639833	-708.468016
0.0000039200	-16863.485088	-723.718866
0.0000039300	-17356.509851	-738.523352
0.0000039400	-17846.812040	-752.910038
0.0000039500	-18334.636079	-766.907321
0.0000039600	-18818.839611	-780.543103
0.0000039700	-19300.936189	-793.844482
0.0000039800	-19781.912629	-806.837466
0.0000039900	-20259.693309	-819.546711
0.0000040000	-20731.539989	-831.995286
0.0000040100	-21196.574397	-844.204474
0.0000040200	-21658.426154	-856.193594
0.0000040300	-22119.417864	-867.979869
0.0000040400	-22577.680446	-879.578322
0.0000040500	-23031.046838	-891.001705
0.0000040600	-23480.199323	-902.260471
0.0000040700	-23925.264668	-913.362772
0.0000040800	-24365.551481	-924.314499
0.0000040900	-24803.509134	-935.119343
0.0000041000	-25239.026525	-945.778901
0.0000041100	-25670.056809	-956.292798
0.0000041200	-26093.379446	-966.658839
0.0000041300	-26510.232232	-976.873189
0.0000041400	-26922.515581	-986.930562
0.0000041500	-27330.629464	-996.824436
0.0000041600	-27736.036439	-1006.547277
0.0000041700	-28135.538188	-1016.090772
0.0000041800	-28530.283624	-1025.446065
0.0000041900	-28921.462106	-1034.604000
0.0000042000	-29306.002085	-1043.555361
0.0000042100	-29683.085397	-1052.291099
0.0000042200	-30055.828032	-1060.802562
0.0000042300	-30424.632518	-1069.081698
0.0000042400	-30788.363051	-1077.121259
0.0000042500	-31147.857454	-1084.914971
0.0000042600	-31502.655653	-1092.457693
0.0000042700	-31853.766682	-1099.745550
0.0000042800	-32199.797203	-1106.776041
0.0000042900	-32538.906909	-1113.548124
0.0000043000	-32871.568983	-1120.062268
0.0000043100	-33199.096996	-1126.320481
0.0000043200	-33521.677824	-1132.326315
0.0000043300	-33838.835724	-1138.084833
0.0000043400	-34150.504034	-1143.602560
0.0000043500	-34457.053948	-1148.887405
0.0000043600	-34756.920919	-1153.948553
0.0000043700	-35046.557653	-1158.796346
0.0000043800	-35329.093249	-1163.442137
0.0000043900	-35607.252839	-1167.898126
0.0000044000	-35879.056239	-1172.177187
0.0000044100	-36142.742911	-1176.292681
0.0000044200	-36399.188567	-1180.258255
0.0000044300	-36649.544680	-1184.087646
0.0000044400	-36893.846576	-1187.794476
0.0000044500	-37134.439083	-1191.392048
0.0000044600	-37369.757651	-1194.893151
0.0000044700	-37598.333168	-1198.309870
0.0000044800	-37821.047900	-1201.653406
0.0000044900	-38038.755339	-1204.933916
0.0000045000	-38249.602070	-1208.160357
0.0000045100	-38450.862960	-1211.340364
0.0000045200	-38646.263065	-1214.480135
0.0000045300	-38836.433672	-1217.584351
0.0000045400	-39020.743495	-1220.656111
0.0000045500	-39199.452625	-1223.696894
0.0000045600	-39371.812119	-1226.706552
0.0000045700	-39535.670581	-1229.683325
0.0000045800	-39690.907798	-1232.623879
0.0000045900	-39841.099834	-1235.523377
0.0000046000	-39986.804763	-1238.375568
0.0000046100	-40125.633317	-1241.172904
0.0000046200	-40257.236522	-1243.906673
0.0000046300	-40381.636599	-1246.567158
0.0000046400	-40496.926577	-1249.143806
0.0000046500	-40604.708894	-1251.625422
0.0000046600	-40706.414775	-1254.000362
0.0000046700	-40802.757835	-1256.256742
0.0000046800	-40892.951244	-1258.382657
0.0000046900	-40976.090513	-1260.366391
0.0000047000	-41049.615167	-1262.196637
0.0000047100	-41115.334180	-1263.862703
0.0000047200	-41177.048382	-1265.354720
0.0000047300	-41231.530682	-1266.663833
0.0000047400	-41277.347294	-1267.782379
0.0000047500	-41316.814269	-1268.704050
0.0000047600	-41347.186814	-1269.424037
0.0000047700	-41368.893671	-1269.939149
0.0000047800	-41385.771000	-1270.247915
0.0000047900	-41396.869872	-1270.350651
0.0000048000	-41401.054482	-1270.249513
