Tiempo_(s)	Campo_(A/m)	Magnetizacion_(A/m)
0.0000000000	-51765.324835	-172.975026
0.0000000100	-51747.329030	-172.923089
0.0000000200	-51714.175570	-172.860401
0.0000000300	-51670.237391	-172.801893
0.0000000400	-51616.237582	-172.757574
0.0000000500	-51550.384413	-172.725869
0.0000000600	-51471.364389	-172.688770
0.0000000700	-51377.507071	-172.611356
0.0000000800	-51271.121350	-172.447254
0.0000000900	-51144.342333	-172.149687
0.0000001000	-50995.476714	-171.685634
0.0000001100	-50839.325201	-171.048975
0.0000001200	-50675.947243	-170.268107
0.0000001300	-50498.258282	-169.404667
0.0000001400	-50307.510031	-168.542466
0.0000001500	-50097.654517	-167.768831
0.0000001600	-49877.256864	-167.153198
0.0000001700	-49655.339788	-166.729076
0.0000001800	-49414.741042	-166.484855
0.0000001900	-49155.222701	-166.366503
0.0000002000	-48884.061527	-166.291603
0.0000002100	-48596.966960	-166.170775
0.0000002200	-48300.211228	-165.930179
0.0000002300	-47997.277101	-165.528592
0.0000002400	-47677.988521	-164.964302
0.0000002500	-47339.155625	-164.270382
0.0000002600	-46985.416789	-163.500562
0.0000002700	-46615.479115	-162.710727
0.0000002800	-46235.095406	-161.942105
0.0000002900	-45850.780413	-161.211228
0.0000003000	-45450.685311	-160.509102
0.0000003100	-45040.423347	-159.808791
0.0000003200	-44618.248510	-159.077835
0.0000003300	-44174.344022	-158.290669
0.0000003400	-43726.428206	-157.436681
0.0000003500	-43269.224173	-156.521587
0.0000003600	-42797.503204	-155.562456
0.0000003700	-42317.047828	-154.579070
0.0000003800	-41820.892448	-153.585403
0.0000003900	-41309.645789	-152.584594
0.0000004000	-40788.847797	-151.569076
0.0000004100	-40260.999568	-150.525292
0.0000004200	-39719.957028	-149.440585
0.0000004300	-39168.354025	-148.309067
0.0000004400	-38607.602421	-147.133892
0.0000004500	-38034.180530	-145.925025
0.0000004600	-37452.902937	-144.693582
0.0000004700	-36858.261691	-143.445344
0.0000004800	-36251.071449	-142.176429
0.0000004900	-35637.734865	-140.873194
0.0000005000	-35012.798902	-139.516688
0.0000005100	-34374.524476	-138.089962
0.0000005200	-33731.458386	-136.585299
0.0000005300	-33078.898147	-135.008257
0.0000005400	-32413.647027	-133.376645
0.0000005500	-31743.945196	-131.714508
0.0000005600	-31066.124487	-130.043253
0.0000005700	-30379.086532	-128.373285
0.0000005800	-29684.595609	-126.699457
0.0000005900	-28983.061312	-125.002276
0.0000006000	-28274.952752	-123.254610
0.0000006100	-27558.887791	-121.431508
0.0000006200	-26833.653636	-119.519450
0.0000006300	-26102.614092	-117.521494
0.0000006400	-25366.922440	-115.456254
0.0000006500	-24620.455201	-113.350970
0.0000006600	-23866.935456	-111.231154
0.0000006700	-23110.111419	-109.110662
0.0000006800	-22345.754306	-106.985899
0.0000006900	-21575.374412	-104.836359
0.0000007000	-20797.923687	-102.631333
0.0000007100	-20012.216795	-100.340318
0.0000007200	-19220.786887	-97.943280
0.0000007300	-18424.281546	-95.436995
0.0000007400	-17622.531430	-92.835179
0.0000007500	-16817.408377	-90.162459
0.0000007600	-16004.097801	-87.444534
0.0000007700	-15181.359451	-84.698253
0.0000007800	-14358.291610	-81.925319
0.0000007900	-13532.486954	-79.111883
0.0000008000	-12701.696102	-76.234033
0.0000008100	-11868.935042	-73.266976
0.0000008200	-11031.801049	-70.194336
0.0000008300	-10191.976023	-67.014056
0.0000008400	-9352.075489	-63.738732
0.0000008500	-8511.010212	-60.390393
0.0000008600	-7669.086823	-56.991834
0.0000008700	-6823.710391	-53.557879
0.0000008800	-5976.711569	-50.089896
0.0000008900	-5129.419845	-46.575539
0.0000009000	-4281.242551	-42.993678
0.0000009100	-3430.749500	-39.322455
0.0000009200	-2577.913235	-35.547325
0.0000009300	-1725.239447	-31.665988
0.0000009400	-872.279622	-27.688494
0.0000009500	-19.068082	-23.632668
0.0000009600	832.434098	-19.516878
0.0000009700	1682.226918	-15.353130
0.0000009800	2532.999142	-11.143256
0.0000009900	3384.194692	-6.879680
0.0000010000	4233.108807	-2.550383
0.0000010100	5080.672839	1.853979
0.0000010200	5927.133909	6.333670
0.0000010300	6771.279221	10.876730
0.0000010400	7614.170553	15.460304
0.0000010500	8456.462353	20.055896
0.0000010600	9298.461251	24.636435
0.0000010700	10139.860616	29.182412
0.0000010800	10979.788608	33.684730
0.0000010900	11815.950063	38.143292
0.0000011000	12647.724854	42.562068
0.0000011100	13476.474526	46.942734
0.0000011200	14300.816941	51.279553
0.0000011300	15121.221208	55.557580
0.0000011400	15937.231948	59.754931
0.0000011500	16748.318273	63.848188
0.0000011600	17554.866917	67.818781
0.0000011700	18356.122735	71.657818
0.0000011800	19153.529643	75.367482
0.0000011900	19944.410337	78.958536
0.0000012000	20730.739623	82.445011
0.0000012100	21513.588409	85.838292
0.0000012200	22286.540312	89.142973
0.0000012300	23049.982068	92.356091
0.0000012400	23807.979982	95.469909
0.0000012500	24560.630153	98.476926
0.0000012600	25305.371976	101.374872
0.0000012700	26042.109347	104.169437
0.0000012800	26772.272454	106.873456
0.0000012900	27495.943670	109.502749
0.0000013000	28215.077205	112.070290
0.0000013100	28927.364168	114.581130
0.0000013200	29628.406435	117.030305
0.0000013300	30320.441985	119.404790
0.0000013400	31005.814034	121.688941
0.0000013500	31682.460808	123.871390
0.0000013600	32351.579103	125.950686
0.0000013700	33013.319938	127.937324
0.0000013800	33663.379021	129.851183
0.0000013900	34305.003463	131.715147
0.0000014000	34939.488431	133.547229
0.0000014100	35564.028465	135.354192
0.0000014200	36176.980582	137.129194
0.0000014300	36778.665141	138.854487
0.0000014400	37369.123329	140.508326
0.0000014500	37949.178936	142.073582
0.0000014600	38522.285004	143.544864
0.0000014700	39086.542237	144.931459
0.0000014800	39641.106252	146.254905
0.0000014900	40185.022835	147.542034
0.0000015000	40715.649005	148.815982
0.0000015100	41236.110581	150.088485
0.0000015200	41747.089467	151.356264
0.0000015300	42247.148613	152.602825
0.0000015400	42734.258299	153.804994
0.0000015500	43209.697694	154.941749
0.0000015600	43673.903853	156.002136
0.0000015700	44126.018665	156.989383
0.0000015800	44569.623327	157.919794
0.0000015900	45001.518780	158.816938
0.0000016000	45419.354945	159.703320
0.0000016100	45824.070040	160.592619
0.0000016200	46217.149166	161.485247
0.0000016300	46598.640375	162.368725
0.0000016400	46966.923544	163.222552
0.0000016500	47321.023866	164.025663
0.0000016600	47663.419576	164.763724
0.0000016700	47993.703344	165.433715
0.0000016800	48306.678447	166.044367
0.0000016900	48605.939811	166.612595
0.0000017000	48894.443913	167.157479
0.0000017100	49170.760564	167.694084
0.0000017200	49433.528223	168.229291
0.0000017300	49681.813269	168.760849
0.0000017400	49917.535590	169.279608
0.0000017500	50141.438871	169.773731
0.0000017600	50353.726778	170.233111
0.0000017700	50551.975990	170.652409
0.0000017800	50735.408500	171.031844
0.0000017900	50905.106679	171.375858
0.0000018000	51060.642603	171.690584
0.0000018100	51201.920172	171.981311
0.0000018200	51329.873005	172.250918
0.0000018300	51445.324894	172.499633
0.0000018400	51548.875370	172.725778
0.0000018500	51637.801348	172.926828
0.0000018600	51712.141747	173.100120
0.0000018700	51774.470902	173.242974
0.0000018800	51824.408943	173.352524
0.0000018900	51859.715622	173.425858
0.0000019000	51878.461916	173.460981
0.0000019100	51884.801100	173.458590
0.0000019200	51879.872726	173.423976
0.0000019300	51860.619620	173.367829
0.0000019400	51827.387331	173.304770
0.0000019500	51782.974453	173.249119
0.0000019600	51726.811180	173.208591
0.0000019700	51659.135499	173.177827
0.0000019800	51577.045848	173.134417
0.0000019900	51480.663520	173.039825
0.0000020000	51374.333990	172.846360
0.0000020100	51254.334175	172.509319
0.0000020200	51107.762668	172.001316
0.0000020300	50934.683575	171.324451
0.0000020400	50749.046354	170.515941
0.0000020500	50552.999688	169.644361
0.0000020600	50352.795212	168.796357
0.0000020700	50152.284105	168.056765
0.0000020800	49933.514656	167.487465
0.0000020900	49695.853068	167.111111
0.0000021000	49454.257929	166.904753
0.0000021100	49192.523476	166.805566
0.0000021200	48917.276681	166.727227
0.0000021300	48634.135265	166.582236
0.0000021400	48329.884325	166.303647
0.0000021500	48019.825727	165.859925
0.0000021600	47693.435539	165.258929
0.0000021700	47350.517021	164.540494
0.0000021800	46998.216512	163.760660
0.0000021900	46636.092361	162.973029
0.0000022000	46265.277257	162.213254
0.0000022100	45875.416669	161.491197
0.0000022200	45475.968159	160.792402
0.0000022300	45059.792190	160.087301
0.0000022400	44629.634770	159.344100
0.0000022500	44192.623913	158.540460
0.0000022600	43738.379899	157.669996
0.0000022700	43278.627994	156.741932
0.0000022800	42805.166887	155.774886
0.0000022900	42316.159121	154.787900
0.0000023000	41819.281924	153.792520
0.0000023100	41308.283660	152.788991
0.0000023200	40789.088741	151.767669
0.0000023300	40255.951229	150.714561
0.0000023400	39712.866516	149.618260
0.0000023500	39160.081720	148.475100
0.0000023600	38593.672423	147.290315
0.0000023700	38017.698064	146.074772
0.0000023800	37428.174713	144.838824
0.0000023900	36830.781930	143.586103
0.0000024000	36222.592966	142.310107
0.0000024100	35606.800016	140.995295
0.0000024200	34982.240604	139.622476
0.0000024300	34345.276349	138.176411
0.0000024400	33701.955223	136.652499
0.0000024500	33045.222392	135.059672
0.0000024600	32379.066384	133.418022
0.0000024700	31707.876130	131.751810
0.0000024800	31029.315279	130.080377
0.0000024900	30342.143580	128.410461
0.0000025000	29647.539505	126.732975
0.0000025100	28945.033944	125.025714
0.0000025200	28231.615508	123.261125
0.0000025300	27511.158295	121.416354
0.0000025400	26785.421985	119.481765
0.0000025500	26053.466092	117.464654
0.0000025600	25315.556061	115.386635
0.0000025700	24570.289162	113.275538
0.0000025800	23816.814147	111.154786
0.0000025900	23056.437644	109.034191
0.0000026000	22286.571588	106.905615
0.0000026100	21508.742267	104.745171
0.0000026200	20726.116687	102.521161
0.0000026300	19937.543832	100.204833
0.0000026400	19144.746792	97.779979
0.0000026500	18347.876584	95.247861
0.0000026600	17544.235312	92.625691
0.0000026700	16736.015173	89.939359
0.0000026800	15927.113129	87.213195
0.0000026900	15116.263739	84.460647
0.0000027000	14300.435017	81.679318
0.0000027100	13477.773451	78.852131
0.0000027200	12646.610868	75.954025
0.0000027300	11811.121134	72.961516
0.0000027400	10974.956358	69.861451
0.0000027500	10137.409447	66.655640
0.0000027600	9298.887728	63.359711
0.0000027700	8456.054854	59.996762
0.0000027800	7610.455441	56.588338
0.0000027900	6763.650098	53.146228
0.0000028000	5914.277282	49.668176
0.0000028100	5064.201968	46.139008
0.0000028200	4213.833752	42.536598
0.0000028300	3363.724116	38.840240
0.0000028400	2512.776960	35.038158
0.0000028500	1660.923642	31.131334
0.0000028600	809.287717	27.132338
0.0000028700	-41.400859	23.059850
0.0000028800	-891.734752	18.931216
0.0000028900	-1741.878711	14.756087
0.0000029000	-2591.933432	10.533688
0.0000029100	-3443.152896	6.254736
0.0000029200	-4293.351769	1.907191
0.0000029300	-5140.260079	-2.516529
0.0000029400	-5985.642099	-7.013762
0.0000029500	-6829.614526	-11.569520
0.0000029600	-7671.733440	-16.158933
0.0000029700	-8513.211635	-20.753185
0.0000029800	-9352.742483	-25.326617
0.0000029900	-10190.753907	-29.862218
0.0000030000	-11027.273364	-34.353437
0.0000030100	-11861.142976	-38.801757
0.0000030200	-12692.049247	-43.211165
0.0000030300	-13519.964721	-47.581862
0.0000030400	-14340.136591	-51.905818
0.0000030500	-15153.114071	-56.165991
0.0000030600	-15963.807848	-60.339524
0.0000030700	-16771.920425	-64.403634
0.0000030800	-17577.076525	-68.341826
0.0000030900	-18377.308209	-72.148004
0.0000031000	-19172.716176	-75.826869
0.0000031100	-19963.076168	-79.390565
0.0000031200	-20748.994581	-82.852985
0.0000031300	-21531.901603	-86.224091
0.0000031400	-22306.465489	-89.506512
0.0000031500	-23072.105032	-92.695710
0.0000031600	-23829.385442	-95.783496
0.0000031700	-24579.281527	-98.763263
0.0000031800	-25324.026671	-101.634603
0.0000031900	-26060.584291	-104.405214
0.0000032000	-26788.830831	-107.089171
0.0000032100	-27511.326896	-109.702144
0.0000032200	-28228.012975	-112.255516
0.0000032300	-28935.884542	-114.751879
0.0000032400	-29635.348925	-117.183913
0.0000032500	-30329.172665	-119.537327
0.0000032600	-31015.074327	-121.796900
0.0000032700	-31689.770211	-123.953325
0.0000032800	-32357.230518	-126.008121
0.0000032900	-33018.185206	-127.974547
0.0000033000	-33666.572572	-129.873939
0.0000033100	-34306.218667	-131.728692
0.0000033200	-34941.388861	-133.554484
0.0000033300	-35566.321219	-135.354703
0.0000033400	-36179.917376	-137.119334
0.0000033500	-36785.795119	-138.828864
0.0000033600	-37380.549458	-140.461897
0.0000033700	-37963.647234	-142.003695
0.0000033800	-38538.120434	-143.452468
0.0000033900	-39099.767733	-144.820999
0.0000034000	-39647.401527	-146.132934
0.0000034100	-40183.678526	-147.415030
0.0000034200	-40709.076971	-148.688176
0.0000034300	-41226.027045	-149.960489
0.0000034400	-41736.130547	-151.225005
0.0000034500	-42236.588882	-152.462807
0.0000034600	-42725.848303	-153.650408
0.0000034700	-43201.496952	-154.768671
0.0000034800	-43664.610334	-155.809994
0.0000034900	-44117.675816	-156.781185
0.0000035000	-44557.533258	-157.701057
0.0000035100	-44982.287961	-158.593724
0.0000035200	-45394.438753	-159.480125
0.0000035300	-45795.859740	-160.370860
0.0000035400	-46186.388444	-161.262891
0.0000035500	-46562.313243	-162.141131
0.0000035600	-46923.604412	-162.984197
0.0000035700	-47275.206958	-163.772091
0.0000035800	-47615.713558	-164.493027
0.0000035900	-47944.591053	-165.147052
0.0000036000	-48259.088902	-165.745409
0.0000036100	-48557.918800	-166.306167
0.0000036200	-48845.547517	-166.847934
0.0000036300	-49121.698148	-167.384007
0.0000036400	-49385.157897	-167.918935
0.0000036500	-49635.006875	-168.448431
0.0000036600	-49870.073473	-168.962238
0.0000036700	-50090.922901	-169.448566
0.0000036800	-50298.427001	-169.898299
0.0000036900	-50492.299736	-170.307504
0.0000037000	-50673.296250	-170.677648
0.0000037100	-50843.604147	-171.013854
0.0000037200	-51002.482007	-171.322256
0.0000037300	-51142.872731	-171.607637
0.0000037400	-51265.128730	-171.872187
0.0000037500	-51373.963893	-172.115561
0.0000037600	-51466.845068	-172.335777
0.0000037700	-51548.259618	-172.530230
0.0000037800	-51620.429465	-172.696262
0.0000037900	-51679.125828	-172.831162
0.0000038000	-51725.396755	-172.932014
0.0000038100	-51756.647315	-172.996007
0.0000038200	-51770.996539	-173.021629
0.0000038300	-51772.435221	-173.010570
